Time (s),EMG_Relaxed (mV),EMG_Contracted (mV)
0.0,0.0064081571047766165,0.07732291290266169
0.000488328938372888,0.02022811440909927,0.09092754894281316
0.000976657876745776,0.024025097815608097,0.10586761454257526
0.001464986815118664,0.029097413821055497,0.10885758789089825
0.001953315753491552,0.041916208659474,0.09633550779055791
0.0024416446918644396,0.057447361400196184,0.09155606237971713
0.002929973630237328,0.06866025884901622,0.09919588423569134
0.003418302568610216,0.07086909452247493,0.09548927211374497
0.003906631506983104,0.06869911571759574,0.07121392337760701
0.0043949604453559915,0.07067101646752871,0.0450741621691929
0.004883289383728879,0.07656941691582886,0.03866135636934605
0.005371618322101768,0.07726219030700818,0.05426215324562579
0.005859947260474656,0.06684517333865687,0.07445674910635033
0.006348276198847543,0.05197312098571757,0.08143350947937163
0.006836605137220432,0.041950949415450633,0.06354849372986181
0.00732493407559332,0.03684299862046443,0.013309210772648676
0.007813263013966208,0.029955504727074013,-0.057034976921723456
0.008301591952339095,0.013587877733740225,-0.12123508387158081
0.008789920890711983,-0.013501066885457436,-0.15602626610470688
0.00927824982908487,-0.039390808257483166,-0.14628907744996797
0.009766578767457759,-0.053908346090021146,-0.10817127822701389
0.010254907705830648,-0.060965126295001365,-0.08264084115410386
0.010743236644203536,-0.06681600920901891,-0.08489545351420612
0.011231565582576424,-0.07144787517858629,-0.0937077621776854
0.011719894520949311,-0.07213487020492852,-0.08781449871663582
0.012208223459322199,-0.07219314310342999,-0.0660333547000971
0.012696552397695087,-0.07506452964802329,-0.03945741433037091
0.013184881336067975,-0.07652943283297713,-0.02359950548271359
0.013673210274440864,-0.07495136946874927,-0.026695800954376944
0.014161539212813752,-0.07025655634863212,-0.035538911355295535
0.01464986815118664,-0.06104327941927829,-0.03317069973394099
0.015138197089559527,-0.047730884322259755,-0.022399932366751665
0.015626526027932415,-0.03001257882668686,-0.009432739114224289
0.016114854966305305,-0.011758193868755326,0.008918507886355145
0.01660318390467819,0.0031017430417792985,0.029766939240585294
0.01709151284305108,0.01557334060778178,0.04307983704112223
0.017579841781423966,0.025958071871744266,0.045066673245843056
0.018068170719796856,0.03682126102933435,0.044285492152371236
0.01855649965816974,0.04952761742706624,0.05573678623437081
0.01904482859654263,0.06115884278122104,0.08387884366334106
0.019533157534915517,0.07011733149024299,0.11180526833650756
0.020021486473288407,0.07578404457329349,0.11626144876188833
0.020509815411661296,0.08093350369519109,0.0966134415063693
0.020998144350034182,0.08531213749213101,0.06982013430964312
0.02148647328840707,0.08047630881638368,0.04410310576390651
0.021974802226779958,0.06736992049346038,0.020192119257195905
0.022463131165152847,0.05858879248695409,0.0034142625236412427
0.022951460103525733,0.059065014890657734,0.003967523800836863
0.023439789041898623,0.05757802157457468,0.024922205409535637
0.023928117980271512,0.04381059522767851,0.050440320891292675
0.024416446918644398,0.02612768943812062,0.059261354267446484
0.024904775857017288,0.011273632384150023,0.0461453329385737
0.025393104795390174,-0.006190000930141219,0.022188336198713743
0.025881433733763063,-0.023406882578601514,0.003245807700694256
0.02636976267213595,-0.035853119665882865,-0.009230741068869085
0.02685809161050884,-0.047846697504244355,-0.03249382601797665
0.027346420548881728,-0.06144071361376657,-0.06930858119130646
0.027834749487254614,-0.07321769426135369,-0.09836955747285156
0.028323078425627504,-0.07743811925701345,-0.11497982913459166
0.02881140736400039,-0.0744664699816528,-0.13313470398765131
0.02929973630237328,-0.07079977174530214,-0.14532416164520684
0.029788065240746165,-0.06782081980049594,-0.13777842596895962
0.030276394179119055,-0.06510466971795237,-0.12200155427401534
0.03076472311749194,-0.06204763818979406,-0.10619933395273719
0.03125305205586483,-0.056530622146872184,-0.07731986369563423
0.03174138099423772,-0.04771768261691038,-0.029942887625379673
0.03222970993261061,-0.034156048670364876,0.018583349079767726
0.03271803887098349,-0.018143370273457374,0.04399860682964536
0.03320636780935638,-0.0039378552720041584,0.04289615036369998
0.03369469674772927,0.005908884795430354,0.03255406246890183
0.03418302568610216,0.013089456341452912,0.025913655726202803
0.03467135462447504,0.027339165709650493,0.03384806478622061
0.03515968356284793,0.047134575262566855,0.06450111728530283
0.03564801250122082,0.05966334632993742,0.10217123762079489
0.03613634143959371,0.06454165037251745,0.12360605213121384
0.0366246703779666,0.06672647281010782,0.1281081938483384
0.03711299931633948,0.07014682884732883,0.12528672774136715
0.03760132825471237,0.07742702225151096,0.11084646044619674
0.03808965719308526,0.0814366847998651,0.07312412655057558
0.03857798613145815,0.07697820813538628,0.026491484882524736
0.039066315069831034,0.06608944944666634,0.005736973285385666
0.039554644008203924,0.05263944983812134,0.009555557710369617
0.04004297294657681,0.04285340737983137,0.0006471695179976131
0.0405313018849497,0.03819279192794479,-0.033712004125110384
0.04101963082332259,0.031889205615249924,-0.06990511044985831
0.041507959761695475,0.014952867608882389,-0.082407437578722
0.041996288700068364,-0.007743621568283012,-0.059430722378957065
0.042484617638441254,-0.021196606203792774,-0.011417850171752949
0.04297294657681414,-0.02680179316463415,0.03234288910109172
0.04346127551518703,-0.03581768889331518,0.0544197149730797
0.043949604453559915,-0.04976315221792546,0.05912866383322847
0.044437933391932805,-0.06120103802632489,0.054028469914012486
0.044926262330305694,-0.06603771601528252,0.03559613567806842
0.045414591268678584,-0.07139787113167297,-0.007129719235980769
0.045902920207051466,-0.07986230263227471,-0.07502717144160767
0.046391249145424356,-0.08214752798723568,-0.14440639294558633
0.046879578083797245,-0.07604306883802035,-0.17394241685016032
0.047367907022170135,-0.0685815465012698,-0.15056038692162765
0.047856235960543024,-0.06159214385603881,-0.11127780699281795
0.04834456489891591,-0.052638050010083495,-0.08889703383659962
0.048832893837288796,-0.04237129416949112,-0.07282579547717982
0.049321222775661686,-0.031325131012303,-0.04297096202425636
0.049809551714034575,-0.016497765516418125,-0.008953890959062398
0.05029788065240746,0.0021379461009994175,0.008053705123776499
0.05078620959078035,0.019431635230368415,0.008168874055689425
0.05127453852915324,0.030743612261489688,0.0052693475605238745
0.051762867467526126,0.03791169335053482,0.008246073401209301
0.052251196405899016,0.04926426096416919,0.01739112427040833
0.0527395253442719,0.06333156007076385,0.029352631219076712
0.05322785428264479,0.06989145835606271,0.04007212796331611
0.05371618322101768,0.07181115757201091,0.04546761687525031
0.05420451215939057,0.07518579972323436,0.047149073164748034
0.054692841097763456,0.07694152240134239,0.05234046914017837
0.05518117003613634,0.07610720526047754,0.06313080959304851
0.05566949897450923,0.07329963408038058,0.07077275817447908
0.05615782791288212,0.06678338382359461,0.0701490267589292
0.05664615685125501,0.05581945043691179,0.06782555686404258
0.05713448578962789,0.042564484578226126,0.06186717466484322
0.05762281472800078,0.030140545172176493,0.04345958963310605
0.05811114366637367,0.015932832260236743,0.02316788007327155
0.05859947260474656,-0.002515128287876111,0.018862650619795338
0.05908780154311945,-0.018941834254964287,0.02487607547581014
0.05957613048149233,-0.03005406465337098,0.02771486968023826
0.06006445941986522,-0.039251387331981594,0.024933717842859852
0.06055278835823811,-0.048563286703446736,0.001929920708603268
0.061041117296611,-0.05900207053095277,-0.05493578581455648
0.06152944623498388,-0.07079345347417282,-0.11961762002644048
0.06201777517335677,-0.08149292348634743,-0.14688715766994567
0.06250610411172966,-0.08527181403544613,-0.11945123269871737
0.06299443305010255,-0.08215997601977261,-0.06821840039047959
0.06348276198847544,-0.07836239418677225,-0.03631864938313821
0.06397109092684833,-0.07254687139457436,-0.026687461084646723
0.06445941986522122,-0.06340209636860744,-0.02239699666997537
0.0649477488035941,-0.0537929512031716,-0.020036033756196607
0.06543607774196698,-0.041709181398271525,-0.013164333224980986
0.06592440668033987,-0.02538746103464711,0.005902242737168023
0.06641273561871276,-0.008244477002802507,0.023019728885102068
0.06690106455708565,0.004650057232391247,0.012803901804403526
0.06738939349545854,0.01594389677694946,-0.024803344399921566
0.06787772243383143,0.03148087440559899,-0.05025867757328676
0.06836605137220432,0.044911892491064205,-0.03329483430781765
0.06885438031057721,0.05362924364636707,0.004491070420622377
0.06934270924895009,0.06617165907443663,0.03962266669690509
0.06983103818732297,0.07854788746213084,0.07920858399335458
0.07031936712569586,0.08190654309466001,0.11643367926375522
0.07080769606406875,0.07846595744494303,0.12738174274724612
0.07129602500244164,0.0740670316014197,0.10260053640956898
0.07178435394081453,0.07412973875457962,0.05995805280898528
0.07227268287918742,0.07526524501457206,0.03567657033512505
0.07276101181756031,0.06934876236229205,0.0402408089047514
0.0732493407559332,0.05944968555594999,0.05315887043235413
0.07373766969430608,0.0485997346205553,0.06385270859909989
0.07422599863267897,0.03346919242695066,0.0699995819751136
0.07471432757105186,0.017483991761210183,0.06234191813983242
0.07520265650942475,0.0058859410766666535,0.041011528516429606
0.07569098544779763,-0.0029185482410265086,0.016496087621872876
0.07617931438617052,-0.012310079793043919,-0.00829540441483016
0.07666764332454341,-0.0247271003690794,-0.03512466962411549
0.0771559722629163,-0.041348494141845396,-0.06064882945945235
0.07764430120128919,-0.059757491620256044,-0.07660362407509196
0.07813263013966207,-0.0734167525899003,-0.08251719543264537
0.07862095907803496,-0.07897736453130622,-0.09420627252511808
0.07910928801640785,-0.07913327392306825,-0.11249043493824075
0.07959761695478074,-0.07565394726842638,-0.10922904863300867
0.08008594589315363,-0.071845899239926,-0.07360513503638998
0.08057427483152652,-0.06877150790760261,-0.03177274480394863
0.0810626037698994,-0.06309775220900429,-0.013265717265788082
0.0815509327082723,-0.05797621984986866,-0.022874063530693635
0.08203926164664518,-0.053385161740452595,-0.039245617375940775
0.08252759058501807,-0.04222213037815167,-0.03734665673658253
0.08301591952339095,-0.0225016008401876,-0.015146586227149412
0.08350424846176384,0.0006408939950819006,0.010286083238830812
0.08399257740013673,0.015425416820921196,0.02946390685692497
0.08448090633850962,0.0195759244196494,0.04232351335779693
0.08496923527688251,0.026479316304452064,0.04760005924920073
0.0854575642152554,0.04027280829364583,0.05015144326608502
0.08594589315362829,0.05542286535508344,0.05912042192977432
0.08643422209200118,0.06898185242995974,0.07286531391111088
0.08692255103037407,0.07580406105993813,0.08085192733416342
0.08741087996874694,0.07631773317052218,0.07646872412415572
0.08789920890711983,0.07779334125830482,0.055569830900825005
0.08838753784549272,0.08037481131906105,0.014548049380568306
0.08887586678386561,0.07808463001351791,-0.032663322939296496
0.0893641957222385,0.06768413129892525,-0.05276958542315739
0.08985252466061139,0.05474438541630413,-0.030189141415225024
0.09034085359898428,0.04626208247287933,0.010180835918413511
0.09082918253735717,0.03838531133076818,0.028034696966416865
0.09131751147573006,0.026526304463127558,0.004838205663511907
0.09180584041410293,0.013690798102117197,-0.042041253058744024
0.09229416935247582,0.00038503873082793277,-0.08246036628136119
0.09278249829084871,-0.01593295663491747,-0.10590340761950684
0.0932708272292216,-0.03441071400584749,-0.11756100406687267
0.09375915616759449,-0.05036850153801284,-0.10804297753058387
0.09424748510596738,-0.05954868106144858,-0.06106947931909855
0.09473581404434027,-0.06591032584539656,0.0030651279695533135
0.09522414298271316,-0.07271277318135169,0.04178072560416807
0.09571247192108605,-0.07696591880422221,0.04538420671325606
0.09620080085945892,-0.08145181104340167,0.03424724513553182
0.09668912979783181,-0.08630940469742293,0.017981575197295208
0.0971774587362047,-0.08555344299497035,-0.00852740027534657
0.09766578767457759,-0.07703791531725383,-0.0408964392613798
0.09815411661295048,-0.0635038940956519,-0.0624008252320448
0.09864244555132337,-0.05333002530923469,-0.06356139159640864
0.09913077448969626,-0.04673936812010348,-0.051963783163865955
0.09961910342806915,-0.035192602969856296,-0.0406341126760607
0.10010743236644204,-0.01896046857374791,-0.03773040562450765
0.10059576130481492,-0.0028224104125717238,-0.04313633991391966
0.1010840902431878,0.011607938937347942,-0.04737446823659258
0.1015724191815607,0.025255255531940846,-0.04098754626100526
0.10206074811993358,0.039228983800825935,-0.026135413415202903
0.10254907705830647,0.052301511728710615,-0.007160695145320133
0.10303740599667936,0.06162531653802247,0.025947734594769643
0.10352573493505225,0.06523792633375727,0.07597950906221314
0.10401406387342514,0.06782605902688682,0.12003879446153368
0.10450239281179803,0.07483846330886433,0.13246417007214945
0.1049907217501709,0.08195355769699798,0.11194588592627336
0.1054790506885438,0.0826428684119328,0.09099479161954417
0.10596737962691669,0.07838917909754764,0.10110301893935818
0.10645570856528958,0.07432900695493845,0.12731231318585307
0.10694403750366246,0.06795184449736379,0.12808500552203536
0.10743236644203535,0.05554080515178147,0.09694179103601158
0.10792069538040824,0.04238708746052028,0.07250999270125745
0.10840902431878113,0.0285120779034517,0.07962071903498003
0.10889735325715402,0.008730097063782674,0.09783073434862795
0.10938568219552691,-0.01308506718298092,0.1016800496505709
0.10987401113389979,-0.03112116566840626,0.09413957942538637
0.11036234007227268,-0.045031160902590864,0.08557884423258305
0.11085066901064557,-0.05563996129412837,0.06514256751231937
0.11133899794901846,-0.06207373760509647,0.012910766364938958
0.11182732688739135,-0.06778255790999563,-0.06750640913425417
0.11231565582576424,-0.07731694929078547,-0.14970452842560794
0.11280398476413712,-0.08628128748871902,-0.20746291464113994
0.11329231370251001,-0.0883934423839894,-0.2258916568857422
0.1137806426408829,-0.0829456780770859,-0.2106385040781195
0.11426897157925578,-0.07346152519753181,-0.18643516918401365
0.11475730051762867,-0.06335919697068315,-0.16993109698663533
0.11524562945600156,-0.05342923309443459,-0.1494701614966331
0.11573395839437445,-0.043907048701299814,-0.10881815750547928
0.11622228733274734,-0.03478862498523006,-0.05682565611554662
0.11671061627112023,-0.02592751790457471,-0.011701969054895208
0.11719894520949312,-0.014796041982657654,0.02146940099713552
0.117687274147866,0.0021039849444161422,0.05068850087378415
0.1181756030862389,0.021747893681829198,0.08285893942563616
0.11866393202461177,0.037077294421270564,0.10769177552668836
0.11915226096298466,0.04554965206440954,0.11304637956686313
0.11964058990135755,0.053155330920564584,0.1049744202903276
0.12012891883973044,0.06477897998179047,0.09613604661564899
0.12061724777810333,0.07514801558510022,0.08708460006814009
0.12110557671647622,0.07996072647005545,0.0652627605548438
0.12159390565484911,0.07986740317700772,0.034252209050215886
0.122082234593222,0.0785964599867032,0.026036521528497177
0.12257056353159489,0.07837766111556381,0.054586418198529
0.12305889246996776,0.07188392902151451,0.09066802632462762
0.12354722140834065,0.05716036073908135,0.10193799166192348
0.12403555034671354,0.041303690041875354,0.0843837280015158
0.12452387928508643,0.027110912444423145,0.05064765269719144
0.12501220822345932,0.014231751244134911,0.01269493890864293
0.1255005371618322,0.0006448930807805616,-0.019003792772449
0.1259888661002051,-0.012082255048166091,-0.03550880947773438
0.126477195038578,-0.021578948804710438,-0.04010600046195961
0.12696552397695088,-0.03363906090167103,-0.048291720007563176
0.12745385291532377,-0.05058555810687142,-0.06745532926076483
0.12794218185369666,-0.06640082790330462,-0.0821154563415308
0.12843051079206955,-0.07376802141132159,-0.07416756490529011
0.12891883973044244,-0.07408850678099715,-0.054616841074108996
0.12940716866881533,-0.07798490268519566,-0.048950814204761876
0.1298954976071882,-0.08606008371907761,-0.060033916034788276
0.13038382654556108,-0.0865998528714276,-0.06327663232784979
0.13087215548393397,-0.07218680926936183,-0.04056292447287967
0.13136048442230686,-0.054388450074910236,-0.012205889269678943
0.13184881336067975,-0.050163904762607445,-0.007254251337960489
0.13233714229905263,-0.05310223545087489,-0.022854934072642254
0.13282547123742552,-0.04610552505893452,-0.03921123535992883
0.1333138001757984,-0.027495505681301297,-0.04734367875406836
0.1338021291141713,-0.008052862608341389,-0.04666643293266638
0.1342904580525442,0.007156027634721929,-0.030838978740529703
0.13477878699091708,0.021607314231511937,-0.00014023235744918192
0.13526711592928997,0.03521763353494067,0.029685694566882352
0.13575544486766286,0.04772178731239366,0.052147156027884785
0.13624377380603575,0.05972211935112815,0.07312836394332983
0.13673210274440864,0.06862593619353473,0.08789769486958549
0.13722043168278153,0.07404055745998389,0.08791360062282813
0.13770876062115442,0.07550084838122968,0.08391930107976248
0.1381970895595273,0.07409659201628253,0.08783249033690511
0.13868541849790017,0.07329352654608336,0.08475691963234873
0.13917374743627306,0.07207884074706297,0.06218523457427441
0.13966207637464595,0.06802922720737947,0.03924607532234334
0.14015040531301884,0.059291117468150474,0.03319948155064628
0.14063873425139173,0.04623785198945868,0.03299605844774161
0.14112706318976462,0.03373436609264093,0.027927697133614537
0.1416153921281375,0.023881449294128845,0.02479412661469526
0.1421037210665104,0.01221805383593789,0.0229883255020059
0.1425920500048833,-0.004992815135789226,0.015284796546281919
0.14308037894325618,-0.023074388637156797,0.014089702087119294
0.14356870788162907,-0.038205831492883036,0.02726899687091161
0.14405703682000195,-0.05296642033903253,0.023838829843668058
0.14454536575837484,-0.06386422960108541,-0.023781720098990454
0.14503369469674773,-0.06687380870058336,-0.0908806313207596
0.14552202363512062,-0.0676292383518439,-0.1355412408733398
0.1460103525734935,-0.0717164551685631,-0.15271267026148583
0.1464986815118664,-0.07748478844075257,-0.1670358260381838
0.1469870104502393,-0.08100783248249965,-0.18823898603754935
0.14747533938861215,-0.08234880006646099,-0.1973115972052052
0.14796366832698504,-0.07951170271887158,-0.17480683670930797
0.14845199726535793,-0.06784557689907898,-0.12291463283589721
0.14894032620373082,-0.050962054647280465,-0.06891511601109294
0.1494286551421037,-0.03508284940018656,-0.043476384693434726
0.1499169840804766,-0.023888048091155186,-0.03918869991323242
0.1504053130188495,-0.016469788921930267,-0.019213811760781633
0.15089364195722238,-0.004784580345800923,0.027934935402097908
0.15138197089559527,0.012971081441983914,0.07739378603660176
0.15187029983396816,0.03322945845589293,0.10165452706683435
0.15235862877234105,0.052387816345371825,0.09507228051956443
0.15284695771071394,0.06412413828063199,0.07447966825791097
0.15333528664908683,0.06895952025553333,0.060390378241352766
0.15382361558745972,0.07376994058378238,0.05820112537859947
0.1543119445258326,0.08146949037656592,0.055204761246564385
0.1548002734642055,0.08688938537869804,0.0402864995142684
0.15528860240257839,0.08624050915798856,0.023438953138224264
0.15577693134095127,0.08508213123969545,0.018292854630717205
0.15626526027932414,0.08251506792989083,0.02246602240158753
0.15675358921769703,0.0716065249088731,0.02998722930009505
0.15724191815606992,0.054265908809204524,0.03706536729799639
0.1577302470944428,0.03809060322810918,0.036111545524375684
0.1582185760328157,0.027405365893304577,0.028333516487084386
0.15870690497118858,0.01718782922764073,0.022231661581211162
0.15919523390956147,0.004138935997287181,0.009707122527812027
0.15968356284793436,-0.007858248606780836,-0.020529478881171438
0.16017189178630725,-0.02017494084550965,-0.05285995154604306
0.16066022072468014,-0.035778400126851184,-0.06423681483862681
0.16114854966305303,-0.05174413221038826,-0.05520595339162639
0.16163687860142592,-0.06251070331431667,-0.03724246691694553
0.1621252075397988,-0.06870194477856324,-0.015065928394729047
0.1626135364781717,-0.07603880571690848,0.004906273436091943
0.1631018654165446,-0.08067914529606343,0.008984975813217444
0.16359019435491748,-0.07661069107115137,-0.010215092633124076
0.16407852329329037,-0.06973982748968949,-0.04178755877534217
0.16456685223166326,-0.06669408190006479,-0.06182163606208571
0.16505518117003615,-0.06397224302741905,-0.056142827832758584
0.165543510108409,-0.056195879050613226,-0.04011069778757135
0.1660318390467819,-0.04421617687793678,-0.03065936114340147
0.1665201679851548,-0.030839800317634163,-0.016545262573452305
0.16700849692352768,-0.017265118907146035,0.008364388540967636
0.16749682586190057,-0.0024715920410893584,0.029744306778015605
0.16798515480027346,0.01446230233145979,0.04406980123815305
0.16847348373864635,0.027437567877058776,0.051513904873395716
0.16896181267701924,0.032741729718360986,0.04061777626048834
0.16945014161539212,0.041152750332039294,0.024133028986994057
0.16993847055376501,0.05916001817205222,0.04066944892033567
0.1704267994921379,0.07552764058752268,0.08072986053580262
0.1709151284305108,0.08261966702397525,0.07515582078615661
0.17140345736888368,0.08438704975325134,0.009997759038919252
0.17189178630725657,0.08118424812571544,-0.029398825692380587
0.17238011524562946,0.07371833406162104,0.007408397293216143
0.17286844418400235,0.06839628325591322,0.0623641089775899
0.17335677312237524,0.06539861746877366,0.06869591746669913
0.17384510206074813,0.05883681721698011,0.03508883211470737
0.174333430999121,0.04779557804699964,0.015977892450131783
0.17482175993749388,0.036905589139887805,0.030529450414299157
0.17531008887586677,0.025778959399226295,0.04406454200194336
0.17579841781423966,0.010059469900194334,0.029013714967333726
0.17628674675261255,-0.005613421374850803,-0.0049787677621880855
0.17677507569098544,-0.016590165860949586,-0.03466485390408279
0.17726340462935833,-0.02991534790557504,-0.04575282038734869
0.17775173356773122,-0.048767350744366014,-0.04053062392451195
0.1782400625061041,-0.06455986190100071,-0.03774978318757872
0.178728391444477,-0.07325499096054358,-0.05745070011733053
0.1792167203828499,-0.08058622064393886,-0.09237222994173307
0.17970504932122278,-0.08477166170552246,-0.10724733932414095
0.18019337825959567,-0.07964500788921729,-0.08296847988485653
0.18068170719796856,-0.07193841989795614,-0.04747275302949368
0.18117003613634144,-0.06767719325516444,-0.03530203694702923
0.18165836507471433,-0.06340941208527683,-0.03731625627344665
0.18214669401308722,-0.05578620946860798,-0.03442045725504759
0.1826350229514601,-0.044579879717023096,-0.03440763617241453
0.18312335188983297,-0.03317976963830494,-0.04286350170587634
0.18361168082820586,-0.021975912973529174,-0.05086922887008809
0.18410000976657875,-0.009943699944531436,-0.04660594300181746
0.18458833870495164,0.0032802108496860364,-0.017355503108877828
0.18507666764332453,0.0214503401755096,0.03408287222456117
0.18556499658169742,0.04051166543360159,0.07838908318665429
0.1860533255200703,0.05409220415075829,0.08971610444603173
0.1865416544584432,0.06526825939508314,0.07902218515701988
0.1870299833968161,0.07420252158597682,0.0753421273341903
0.18751831233518898,0.0780770576548778,0.08713805388918563
0.18800664127356187,0.07729427179203321,0.1008919323929905
0.18849497021193476,0.07358145771344171,0.10332085798263432
0.18898329915030765,0.07165354727927578,0.09738399168114191
0.18947162808868054,0.07215704290820468,0.10078811193596016
0.18995995702705343,0.06928188147266617,0.12238216407187066
0.19044828596542632,0.05888619480195244,0.14359416738158512
0.1909366149037992,0.04501902308855433,0.13757125331482808
0.1914249438421721,0.035391079780276544,0.10080176895969029
0.19191327278054499,0.02432275036446793,0.054899014480666516
0.19240160171891785,0.005297822071426012,0.020531531972102317
0.19288993065729074,-0.012345474348786932,0.00044508847291098094
0.19337825959566363,-0.023671105093281353,-0.013045711474578402
0.19386658853403652,-0.03449842980772685,-0.02960017697347613
0.1943549174724094,-0.04749409288023886,-0.05348087305909818
0.1948432464107823,-0.058398060639305395,-0.07941103833911549
0.19533157534915518,-0.0637302877739352,-0.09713012532668527
0.19581990428752807,-0.06847454819498285,-0.09411011294094866
0.19630823322590096,-0.07669747321818635,-0.0734948735479565
0.19679656216427385,-0.08423844092276378,-0.058061401774607425
0.19728489110264674,-0.08543194464007456,-0.05030353678808129
0.19777322004101963,-0.07811094404674854,-0.03251299456998484
0.19826154897939252,-0.06776535230175049,-0.012821704259521643
0.1987498779177654,-0.060269843089975156,-0.010697464698482512
0.1992382068561383,-0.0539260710275842,-0.01651720272676393
0.1997265357945112,-0.04640577244379769,-0.023399460211703693
0.20021486473288408,-0.0340849559042066,-0.047647177807246255
0.20070319367125697,-0.015962561919807213,-0.0843555275878758
0.20119152260962983,0.0015283265299453454,-0.10019919685735557
0.20167985154800272,0.016534564808231192,-0.06701166342823525
0.2021681804863756,0.03274944098492939,0.0029244682641599816
0.2026565094247485,0.04964467744469246,0.05083513958718445
0.2031448383631214,0.06199544607748848,0.04021476325754812
0.20363316730149428,0.06926638833128144,0.0025739749878485665
0.20412149623986717,0.07554190422188228,-0.012906135256218587
0.20460982517824006,0.07844066597026347,0.006550599130900253
0.20509815411661295,0.07591310113958871,0.039014277519775896
0.20558648305498584,0.07415735204177545,0.060698952371737135
0.20607481199335873,0.07450989016066571,0.06988990222241755
0.20656314093173161,0.07109066312975759,0.07660601642573056
0.2070514698701045,0.06462710080742037,0.07809978708250515
0.2075397988084774,0.05634954935139044,0.06491504374014168
0.20802812774685028,0.04208543057214959,0.045941997901297646
0.20851645668522317,0.026206081880434648,0.032634933552250105
0.20900478562359606,0.013624070942965551,0.01414529056674818
0.20949311456196895,-0.00042369720353362735,-0.013623426274472338
0.2099814435003418,-0.018057434977092977,-0.03260146923811571
0.2104697724387147,-0.03482749131006331,-0.03547128328034456
0.2109581013770876,-0.04509223733622472,-0.03443040451100468
0.21144643031546048,-0.05043474019624627,-0.04044321326245307
0.21193475925383337,-0.05813234867677069,-0.050209204582626815
0.21242308819220626,-0.0687186318226487,-0.05685997439408056
0.21291141713057915,-0.07548209751142756,-0.07436211449749174
0.21339974606895204,-0.07457742921698661,-0.11500842923969554
0.21388807500732493,-0.07173023855809316,-0.14564898459970552
0.21437640394569782,-0.07227245749101745,-0.12355222792206434
0.2148647328840707,-0.07220811475164662,-0.06170547877846011
0.2153530618224436,-0.0668617490425654,-0.013544984739831643
0.2158413907608165,-0.05649714122893852,-0.003329193942595045
0.21632971969918938,-0.04505373685462376,-0.009303948590683939
0.21681804863756227,-0.03319815221146409,-0.016428576865371157
0.21730637757593516,-0.017240994057412317,-0.026044164156690933
0.21779470651430805,1.049112149706247e-05,-0.017974629892617815
0.21828303545268093,0.01422751289124848,0.02249307831664719
0.21877136439105382,0.028136044102522295,0.061579977164733145
0.21925969332942669,0.04391203627176989,0.05779286218380583
0.21974802226779958,0.057895785474914495,0.020767121869277583
0.22023635120617246,0.06639296723261033,-0.00250504998988961
0.22072468014454535,0.07159963529777912,0.012923777282013833
0.22121300908291824,0.07433788110413876,0.04687794202963494
0.22170133802129113,0.0726519246913938,0.06723245275125427
0.22218966695966402,0.07085007657544162,0.06851793717349786
0.2226779958980369,0.07156702563495415,0.06975601522874011
0.2231663248364098,0.06923288866115883,0.07868080833952283
0.2236546537747827,0.06043554346618191,0.07938323555775716
0.22414298271315558,0.05051703166520026,0.06182164145925416
0.22463131165152847,0.043877760732508736,0.03791577767060897
0.22511964058990136,0.034801847668076445,0.024300418951836624
0.22560796952827425,0.02113114778774285,0.02487735391484333
0.22609629846664714,0.00537680007887037,0.029588364117035203
0.22658462740502003,-0.014097319708520663,0.024737113192000657
0.22707295634339292,-0.030461999849478987,0.002722320565027473
0.2275612852817658,-0.03774986220998618,-0.02806647982088665
0.22804961422013867,-0.04287945417307263,-0.05005849776873992
0.22853794315851156,-0.05098602495121029,-0.06348631860592052
0.22902627209688445,-0.06202144837734565,-0.07772644560025585
0.22951460103525734,-0.06992147621321422,-0.09039482285482274
0.23000292997363023,-0.0713317856096674,-0.10188325796827082
0.23049125891200312,-0.07637439089824562,-0.11572859093459198
0.230979587850376,-0.08321059731501479,-0.12657839878180283
0.2314679167887489,-0.07740561904034324,-0.12596720559120334
0.23195624572712178,-0.06316525569775167,-0.10134861975734699
0.23244457466549467,-0.0525828375617898,-0.04716293208449719
0.23293290360386756,-0.04527017330319888,0.015015450248281374
0.23342123254224045,-0.03506729332472227,0.047859710668275685
0.23390956148061334,-0.02213207086776812,0.03406630001255613
0.23439789041898623,-0.0109400299360976,0.006546319348658286
0.23488621935735912,0.0018024861852981994,0.012845429071280785
0.235374548295732,0.02225986316764008,0.05057370579361316
0.2358628772341049,0.046449374590273845,0.0829989465661897
0.2363512061724778,0.06043487475422312,0.09690267537760695
0.23683953511085065,0.06038791548676486,0.1073519385748686
0.23732786404922354,0.06272725582642158,0.11927224615099977
0.23781619298759643,0.07431271362491536,0.12036157413428253
0.23830452192596932,0.08301150804041484,0.10450501384608232
0.2387928508643422,0.08454853696735805,0.07643890626523052
0.2392811798027151,0.08166838201287234,0.04575456180474417
0.239769508741088,0.07248865500636434,0.023062064935558443
0.24025783767946088,0.060741750629638366,0.012980047116079974
0.24074616661783377,0.055341313076706804,0.01405259387907213
0.24123449555620666,0.05370265812835239,0.024065663235288814
0.24172282449457955,0.04562351975975455,0.04073038588687922
0.24221115343295244,0.02745390637226909,0.057502569225056456
0.24269948237132533,0.003445822712996642,0.05800909568249196
0.24318781130969822,-0.013609523358009714,0.026107627585727537
0.2436761402480711,-0.01873211856032458,-0.025821093572003337
0.244164469186444,-0.02655378768052729,-0.06284318683822783
0.24465279812481688,-0.04221206558637674,-0.07135205599042911
0.24514112706318977,-0.05469860746589236,-0.06633412788291707
0.24562945600156263,-0.06352544571352076,-0.0640459136162968
0.24611778493993552,-0.07452668484159877,-0.07004050929687206
0.24660611387830841,-0.08328808496850726,-0.08149835947800897
0.2470944428166813,-0.08466171788862345,-0.08826400667784232
0.2475827717550542,-0.08136797991923175,-0.0794083986197518
0.24807110069342708,-0.07371620351989809,-0.06084490183521602
0.24855942963179997,-0.06292830222947358,-0.054614355891470484
0.24904775857017286,-0.05480016583170266,-0.0697748307295608
0.24953608750854575,-0.04795027363338684,-0.08777347372288026
0.25002441644691864,-0.040419244558023065,-0.08452418393725858
0.2505127453852915,-0.032100635705026956,-0.057134547407894684
0.2510010743236644,-0.01751104962961007,-0.023703299632225158
0.2514894032620373,0.002852602668371892,0.0008974475555854492
0.2519777322004102,0.020601640536376392,0.015223264365262647
0.25246606113878306,0.033578498845868054,0.021487643231002378
0.252954390077156,0.045523658419436695,0.025856478258775347
0.25344271901552884,0.055850694041134255,0.03765510946523877
0.25393104795390176,0.06210306449339736,0.060053323701211234
0.2544193768922746,0.06733106385339066,0.08662350177350998
0.25490770583064754,0.0747705345154156,0.10856479387429915
0.2553960347690204,0.07982446682609885,0.11971456695443006
0.2558843637073933,0.07683312920868111,0.11780858358379435
0.2563726926457662,0.07009424906630116,0.1114240925204556
0.2568610215841391,0.06677625257013564,0.10661269013570501
0.25734935052251195,0.062214016129886945,0.09144068381645784
0.25783767946088487,0.048364227105903525,0.05966055955227702
0.25832600839925773,0.03171021205939062,0.02920324167776408
0.25881433733763065,0.020423091785515508,0.015543722798275582
0.2593026662760035,0.008017445413959576,0.006555742447168652
0.2597909952143764,-0.00894184775120727,-0.01325297604050886
0.2602793241527493,-0.020804436100707934,-0.03589723756898494
0.26076765309112215,-0.0261241898712939,-0.044951131947240826
0.26125598202949507,-0.03771651778539589,-0.027518708245504724
0.26174431096786793,-0.057940751951810046,0.015958967250675762
0.26223263990624085,-0.07272981595945616,0.04156962894607205
0.2627209688446137,-0.07690699964068826,-0.004230761343363157
0.26320929778298663,-0.07856078010521071,-0.09727841847456933
0.2636976267213595,-0.08134293739514378,-0.15466823972352134
0.2641859556597324,-0.08143044031292417,-0.13453182572161437
0.26467428459810527,-0.0769191118439051,-0.06823381907751655
0.2651626135364782,-0.07166255582520142,-0.02162117192764241
0.26565094247485105,-0.0637516341749463,-0.03128438581207036
0.26613927141322397,-0.05093025441824006,-0.07225324059551254
0.2666276003515968,-0.04149023616692031,-0.09577816576219597
0.26711592928996974,-0.03516000200819959,-0.08101137756855296
0.2676042582283426,-0.024538278185431806,-0.05179407305355053
0.26809258716671547,-0.007655461156702636,-0.04298368216712696
0.2685809161050884,0.014728168194980313,-0.052940848809120825
0.26906924504346125,0.031750700942622306,-0.058087312529199846
0.26955757398183416,0.03764905756257137,-0.04620647434149443
0.270045902920207,0.04516887818265455,-0.010621009727279446
0.27053423185857994,0.05996318163161051,0.04441434763000482
0.2710225607969528,0.0728346079663632,0.09192391376797532
0.2715108897353257,0.07634450986524567,0.10465584048634588
0.2719992186736986,0.07382828614896897,0.08139384385889223
0.2724875476120715,0.07213907008250608,0.03936663089634138
0.27297587655044436,0.07051130767529572,-0.005856432812437584
0.2734642054888173,0.06648138698677773,-0.0350360804277515
0.27395253442719014,0.060582412504924604,-0.03263154077130763
0.27444086336556306,0.053843488573543395,-0.014925334366843929
0.2749291923039359,0.045295525604010706,-0.009797719943773701
0.27541752124230884,0.03201475130877067,-0.015944345727190078
0.2759058501806817,0.017712961666523617,-0.01598262873536692
0.2763941791190546,0.006447692187657651,-0.01158906025698171
0.2768825080574275,-0.007776486886765348,-0.013403161907159506
0.27737083699580034,-0.02710784488066497,-0.01187963027298371
0.27785916593417326,-0.04469176386884201,0.0025193156984039816
0.2783474948725461,-0.05720585246037916,0.00930389840868951
0.27883582381091904,-0.06635925945333561,-0.014547865449064876
0.2793241527492919,-0.07306588061778073,-0.05753823799026842
0.2798124816876648,-0.07617102329366598,-0.08393047887061551
0.2803008106260377,-0.07731584728615533,-0.07838366835932792
0.2807891395644106,-0.07937783041038404,-0.06604087827857158
0.28127746850278346,-0.07808821719641515,-0.06747698787297757
0.2817657974411564,-0.07035129067596281,-0.0688582144885186
0.28225412637952924,-0.06101027851774522,-0.05951469577834745
0.28274245531790215,-0.05280584299384197,-0.048908904869972014
0.283230784256275,-0.04662976694812954,-0.03464448214573434
0.28371911319464793,-0.039583307318639176,-0.008393769975017087
0.2842074421330208,-0.02458773100872374,0.013170757980347655
0.2846957710713937,-0.005543049174980087,0.018043017470460665
0.2851841000097666,0.009238194558418712,0.02282327721070042
0.2856724289481395,0.019272450092102152,0.03556914536234751
0.28616075788651235,0.030258917797617624,0.04797885528528571
0.2866490868248852,0.04906942077180403,0.06502814844274932
0.28713741576325813,0.06812778523248775,0.0985541001432029
0.287625744701631,0.07579550804301041,0.14396910762041432
0.2881140736400039,0.07671941761369691,0.18205257516621148
0.28860240257837677,0.07777839027070745,0.18993321007378847
0.2890907315167497,0.08095992627976573,0.16222761732071822
0.28957906045512255,0.08486000319964052,0.12204871603624823
0.29006738939349547,0.08261900944013323,0.08793168342707948
0.29055571833186833,0.07295558209419276,0.06107989182408792
0.29104404727024125,0.06045319313030717,0.045336790896178696
0.2915323762086141,0.04672330185774755,0.040216934576271506
0.292020705146987,0.032631841174207386,0.03366146477845261
0.2925090340853599,0.019979413502770917,0.018290664827132236
0.2929973630237328,0.010057152940839791,-0.0020789036258771236
0.29348569196210567,-0.001709671460024158,-0.02428856573355171
0.2939740209004786,-0.020571994095842008,-0.05121919621444526
0.29446234983885144,-0.035618662852751476,-0.08107647742979968
0.2949506787772243,-0.040472321146956515,-0.10112269706725348
0.2954390077155972,-0.0492448944351472,-0.1024552419577779
0.2959273366539701,-0.06371449417748697,-0.09524053229514963
0.296415665592343,-0.07180113368082956,-0.09060827862931962
0.29690399453071586,-0.07364319824753703,-0.08294780104397638
0.2973923234690888,-0.07403467005755598,-0.0685584993845758
0.29788065240746164,-0.07131247236086935,-0.053823670629014025
0.29836898134583456,-0.06490145635597816,-0.039850611230454316
0.2988573102842074,-0.060253510614801636,-0.02141939148100215
0.29934563922258034,-0.05719909978761009,0.001702180487329459
0.2998339681609532,-0.047337397542733056,0.020533995298062845
0.3003222970993261,-0.0343314297820803,0.026107070841699068
0.300810626037699,-0.025151963249992103,0.02079451862994872
0.3012989549760719,-0.013891215128639878,0.020934524386437205
0.30178728391444476,0.004156290663687933,0.04342629806423721
0.3022756128528177,0.027031272439465705,0.08019928379426919
0.30276394179119054,0.043611008287904006,0.10149507733648619
0.30325227072956346,0.04569109370539592,0.0948285840265097
0.3037405996679363,0.04869124182192948,0.08380921615776428
0.3042289286063092,0.060874708094965105,0.09603524845654847
0.3047172575446821,0.06901591224819772,0.12292761139033356
0.30520558648305496,0.07407794235362254,0.1347869505544631
0.3056939154214279,0.0821189552525664,0.12113775125998988
0.30618224435980074,0.08468394248234545,0.09036073477252216
0.30667057329817365,0.07914666933685552,0.05463791105454106
0.3071589022365465,0.07152704704349425,0.02585151605426375
0.30764723117491943,0.06304908764686977,0.006439920204704637
0.3081355601132923,0.050967617558077265,-0.005159385214152538
0.3086238890516652,0.038820710462760685,-0.0048378760632871096
0.3091122179900381,0.03072973241716126,0.0006400407773775943
0.309600546928411,0.017266156838286917,-0.002869380849891561
0.31008887586678385,-0.004346472289662129,-0.014055887209377903
0.31057720480515677,-0.022356613686422073,-0.02835653041891458
0.31106553374352963,-0.03548464851450952,-0.04698638558683622
0.31155386268190255,-0.04867430092018256,-0.06670669185803714
0.3120421916202754,-0.05957684415443721,-0.08477552983955872
0.3125305205586483,-0.06810746845509073,-0.09846876935207877
0.3130188494970212,-0.07651355006409963,-0.10051481966785358
0.31350717843539405,-0.07979262073058611,-0.09120149879775014
0.31399550737376697,-0.07597879993215918,-0.08085185229046327
0.31448383631213983,-0.07188170651114892,-0.07062500189775463
0.31497216525051275,-0.07148776066628026,-0.051699810419104646
0.3154604941888856,-0.07319719627890416,-0.027991583982631192
0.3159488231272585,-0.06987556951006135,-0.00947069736350991
0.3164371520656314,-0.05599726101057345,0.008077310403387418
0.3169254810040043,-0.03842255599045731,0.02738387981390203
0.31741380994237717,-0.02535688981683832,0.03662022319385155
0.3179021388807501,-0.015398560668549895,0.038926363275173376
0.31839046781912295,-0.002718523555307634,0.058977952539498175
0.31887879675749586,0.015263640813713604,0.08442713220125259
0.3193671256958687,0.033676775170156756,0.06273207490846004
0.31985545463424164,0.04761768004684598,-0.009071641973994439
0.3203437835726145,0.05863841006503302,-0.05930723971741523
0.3208321125109874,0.06880970165248361,-0.03143913730488415
0.3213204414493603,0.07837878354344063,0.04242876127398221
0.32180877038773315,0.08477216956067544,0.0901062024519677
0.32229709932610606,0.08311473996971756,0.0936426204164248
0.3227854282644789,0.07663471283547879,0.08415132085856888
0.32327375720285184,0.07575753403414158,0.07255377867246934
0.3237620861412247,0.08088487068541565,0.04782624880409082
0.3242504150795976,0.07824576590534335,0.016703128297323733
0.3247387440179705,0.06125273360598312,-0.0018518583850442374
0.3252270729563434,0.04243077103608491,0.0033221544021434513
0.32571540189471626,0.029241037073892435,0.031162253985641132
0.3262037308330892,0.013904019232344179,0.05591043091489735
0.32669205977146204,-0.0042231057039465525,0.03959943365552404
0.32718038870983496,-0.019660514522537895,-0.014816531663487453
0.3276687176482078,-0.03244518768456762,-0.06102631016702738
0.32815704658658074,-0.041819000738919504,-0.0736284096931106
0.3286453755249536,-0.049161775591432845,-0.07793047306050517
0.3291337044633265,-0.058084052440912706,-0.10765913579778116
0.3296220334016994,-0.06741490391759951,-0.1519949971638807
0.3301103623400723,-0.07635305575363632,-0.17119244352575952
0.33059869127844516,-0.08292622632609385,-0.15632915416451226
0.331087020216818,-0.08441154017728388,-0.13288780242114756
0.33157534915519093,-0.08166070767166138,-0.1259936980782509
0.3320636780935638,-0.07292354872222766,-0.14473343000619104
0.3325520070319367,-0.06328118305709692,-0.16478524447962922
0.3330403359703096,-0.061232260314377625,-0.14907270884773988
0.3335286649086825,-0.055999820319920776,-0.10765985329041618
0.33401699384705535,-0.03735270441822685,-0.07880366641446995
0.33450532278542827,-0.014457522590238941,-0.05778736143116568
0.33499365172380113,0.005067672697724629,-0.015507012235167431
0.33548198066217405,0.02139088418176164,0.03674247512745604
0.3359703096005469,0.0333485508887563,0.06738083319084417
0.33645863853891983,0.039065437207124916,0.07563666610679942
0.3369469674772927,0.04126947370753374,0.07620699664089509
0.3374352964156656,0.0471397444701113,0.07624028605716061
0.33792362535403847,0.05562592919410927,0.08506790070687018
0.3384119542924114,0.06132405262469115,0.10774774229052522
0.33890028323078425,0.0699486782433366,0.1312660043846757
0.3393886121691571,0.0816422007577267,0.13682388457689956
0.33987694110753003,0.08512796401634193,0.12182358054334894
0.3403652700459029,0.07934384845173573,0.10101907609316993
0.3408535989842758,0.06966803332181476,0.08454790594747201
0.34134192792264867,0.05840584927797866,0.0637720804881123
0.3418302568610216,0.047631272508161064,0.029498624794725273
0.34231858579939445,0.035625674161515686,-0.006736357265819691
0.34280691473776737,0.021282172031501633,-0.0267239563730047
0.3432952436761402,0.006796742543079165,-0.026098063950464406
0.34378357261451314,-0.010351926585290713,-0.017101803031473697
0.344271901552886,-0.027775664235657593,-0.026230667482658843
0.3447602304912589,-0.03755866794688632,-0.06386680827171044
0.3452485594296318,-0.042279113994224175,-0.0982075494096244
0.3457368883680047,-0.04933395518238135,-0.10084064073956106
0.34622521730637756,-0.061426700166933496,-0.08468455227039667
0.3467135462447505,-0.07287847811106213,-0.0718281090792774
0.34720187518312334,-0.07561150281836126,-0.06900673239968286
0.34769020412149626,-0.07351175250187997,-0.07296997223168182
0.3481785330598691,-0.07365741320232426,-0.07459147203747245
0.348666861998242,-0.07502402753558314,-0.06591076712161695
0.3491551909366149,-0.07426449761978315,-0.046185071302034766
0.34964351987498776,-0.06685285350127147,-0.022520050882930333
0.3501318488133607,-0.05228075105257724,-0.00581999469690167
0.35062017775173354,-0.03973409007986174,0.004363201880812684
0.35110850669010646,-0.03120910895767176,0.019831599789145112
0.3515968356284793,-0.019641751795748445,0.03929506249108618
0.35208516456685224,-0.0030497982968628375,0.04888525413041468
0.3525734935052251,0.018326453271443503,0.049865805860936765
0.353061822443598,0.03841754864446164,0.05544617594985422
0.3535501513819709,0.05210509092681623,0.06584951281179847
0.3540384803203438,0.063993941265079,0.07214482647565724
0.35452680925871666,0.07209523808984242,0.07424253139723756
0.3550151381970896,0.07554170481788261,0.08603082024433115
0.35550346713546244,0.0821158957004919,0.11975111317323076
0.35599179607383535,0.08601117225518964,0.1466564584500445
0.3564801250122082,0.07925963787426192,0.11207880185596095
0.35696845395058113,0.07025067939172219,0.032751291531779116
0.357456782888954,0.06432117990653344,-0.007167112670304218
0.35794511182732686,0.05859720400155267,0.014054521026516505
0.3584334407656998,0.05010015098557591,0.03798800307417408
0.35892176970407264,0.0359452667688293,0.023398941236940772
0.35941009864244555,0.020142801027405104,-0.011412769786936453
0.3598984275808184,0.007511633335427824,-0.029109822640854585
0.36038675651919133,-0.004726823464166676,-0.02943473512841087
0.3608750854575642,-0.01750986779224293,-0.03332341243992901
0.3613634143959371,-0.030072713011730187,-0.03686799234820487
0.36185174333430997,-0.043982608080640744,-0.03418659428416836
0.3623400722726829,-0.05851843692857402,-0.04566842895043539
0.36282840121105575,-0.07056154704424634,-0.08239268170814444
0.36331673014942867,-0.07746940721193757,-0.11793253165841254
0.36380505908780153,-0.08098776581506761,-0.12288478791089527
0.36429338802617445,-0.08235993123249638,-0.10064131633366308
0.3647817169645473,-0.07807445589217558,-0.07026334961237418
0.3652700459029202,-0.06874711920962834,-0.038501000787434625
0.3657583748412931,-0.05992253228074604,-0.006528439782380435
0.36624670377966595,-0.05660591337258075,0.019213106631932007
0.36673503271803887,-0.054542040709138616,0.036813202225005
0.36722336165641173,-0.04339073379687202,0.04527877707987093
0.36771169059478465,-0.027128404561369654,0.04008302499544024
0.3682000195331575,-0.012549498267567025,0.029144240351148917
0.3686883484715304,0.004995576804662283,0.02962767833325441
0.3691766774099033,0.02366888664900639,0.0451604349802828
0.3696650063482762,0.036985733042013254,0.058891483149563544
0.37015333528664907,0.04656670085022912,0.05335319583113388
0.370641664225022,0.0558362861866745,0.03837584016627228
0.37112999316339484,0.06435888046271877,0.0410692248458027
0.37161832210176776,0.0704776423049052,0.06047504567435637
0.3721066510401406,0.07314442373679063,0.06951497356577076
0.37259497997851354,0.0726267487010337,0.06059057986554384
0.3730833089168864,0.07390674412697495,0.04703278156746301
0.3735716378552593,0.07804066545815552,0.04112786100774895
0.3740599667936322,0.07361975659959032,0.04413688509832115
0.3745482957320051,0.058033813848075426,0.045342246159493164
0.37503662467037796,0.045257904393395325,0.04210732287325441
0.3755249536087508,0.0371016610012888,0.042975766386649926
0.37601328254712374,0.024360267821310306,0.047447629345201914
0.3765016114854966,0.009296228420931814,0.04235418182848255
0.3769899404238695,-0.004177415110255523,0.018338895504302403
0.3774782693622424,-0.01751661213870274,-0.014292656384141464
0.3779665983006153,-0.030079522657487534,-0.03403123423942908
0.37845492723898816,-0.042908513123537856,-0.031532544717220834
0.3789432561773611,-0.05566105237069952,-0.020920665319328846
0.37943158511573394,-0.06477362350134677,-0.03636397087526577
0.37991991405410686,-0.0718824025375336,-0.10011015611465414
0.3804082429924797,-0.07793401059337192,-0.17301029429186085
0.38089657193085263,-0.08025332521898126,-0.18507771045168275
0.3813849008692255,-0.08038000051003572,-0.13569150327463103
0.3818732298075984,-0.08032979005730567,-0.09641378958720609
0.3823615587459713,-0.07561149956488898,-0.10390966627420456
0.3828498876843442,-0.061833106828804184,-0.1177444454277626
0.38333821662271705,-0.04670552938604408,-0.0972178947378294
0.38382654556108997,-0.03818394368104142,-0.05736877147707398
0.38431487449946283,-0.02987833769882221,-0.032323832496774334
0.3848032034378357,-0.01638851816044768,-0.030354928041347748
0.3852915323762086,-0.0023706263422157256,-0.032005966808881264
0.3857798613145815,0.006875175871628393,-0.016889318094084893
0.3862681902529544,0.01727658326004551,0.00985441703212589
0.38675651919132725,0.03801397718589341,0.027873400320544934
0.38724484812970017,0.058830788634685764,0.03288458186356513
0.38773317706807303,0.06847458088017874,0.042295673569231834
0.38822150600644595,0.07388804893458585,0.07105252288610847
0.3887098349448188,0.07882364151886809,0.11172133935602857
0.38919816388319173,0.08017221098288654,0.14232041784911953
0.3896864928215646,0.0789277532606871,0.14902265069495146
0.3901748217599375,0.07833165885512058,0.13685354394558252
0.39066315069831037,0.07808853755801827,0.11896075459588779
0.3911514796366833,0.07008055426458885,0.10553937541460455
0.39163980857505615,0.05321483640393756,0.10167940489918448
0.39212813751342906,0.041142900186416774,0.10488496902235173
0.3926164664518019,0.037236902673333024,0.10830313382250538
0.3931047953901748,0.030107507461017924,0.10486935293990543
0.3935931243285477,0.012839141602439779,0.08606989759463096
0.39408145326692057,-0.011569522472917189,0.04788514627148402
0.3945697822052935,-0.030649013224088133,0.002013731636685976
0.39505811114366635,-0.03701580020831228,-0.032638457086924554
0.39554644008203926,-0.04131950939292213,-0.052276547306172524
0.3960347690204121,-0.055628495197071345,-0.058083399625351945
0.39652309795878504,-0.07616623510973124,-0.04358586628746795
0.3970114268971579,-0.09024892943461246,-0.027568701463307504
0.3974997558355308,-0.09387599159327839,-0.04862398852618869
0.3979880847739037,-0.09120606523843981,-0.10352755622692623
0.3984764137122766,-0.08487457049526559,-0.14773129947628635
0.39896474265064946,-0.07830517412990762,-0.1552937369740875
0.3994530715890224,-0.0728072145341864,-0.13899634699499902
0.39994140052739524,-0.06407790444728685,-0.12271290129986337
0.40042972946576816,-0.050231157925343724,-0.11460028259298351
0.400918058404141,-0.03463794390714379,-0.10775510505601903
0.40140638734251394,-0.02020308081022289,-0.09408255905370888
0.4018947162808868,-0.007193305866945672,-0.06729585813215533
0.40238304521925966,0.00380546579582237,-0.026691397484163517
0.4028713741576326,0.01532463496422572,0.01807935836192366
0.40335970309600544,0.032971222460128104,0.05084308063418862
0.40384803203437836,0.05310901131344924,0.06395160554561728
0.4043363609727512,0.06646844381626864,0.07056133345608306
0.40482468991112414,0.07253842816742663,0.08280686720881011
0.405313018849497,0.0743336927968838,0.09696590954408754
0.4058013477878699,0.07398792211434282,0.11499961225397051
0.4062896767262428,0.07598988363504211,0.13351373330120211
0.4067780056646157,0.07995504923333266,0.11504003376176727
0.40726633460298856,0.0795977305098165,0.04252295542562491
0.4077546635413615,0.07283739657122154,-0.018185110164727514
0.40824299247973433,0.06531626149753231,-0.006440034830872625
0.40873132141810725,0.05843148286320733,0.03348289029508146
0.4092196503564801,0.04666042078865794,0.036495655110901824
0.40970797929485303,0.031615520860536185,0.015969423852971155
0.4101963082332259,0.01492502390879306,0.010133290187095445
0.4106846371715988,-0.005658853850691513,0.01391849125259503
0.41117296610997167,-0.02592127480885463,0.006877896782763848
0.41166129504834453,-0.043679371154700164,-0.010762476221700876
0.41214962398671745,-0.057843641284421835,-0.027197002767792793
0.4126379529250903,-0.06539402589765274,-0.03469054565606728
0.41312628186346323,-0.06999568732186419,-0.038202681373645395
0.4136146108018361,-0.0731066436136424,-0.05019725298196974
0.414102939740209,-0.07477304893887708,-0.0721880924628992
0.41459126867858187,-0.07897931064121834,-0.09224241626969276
0.4150795976169548,-0.08191361804035979,-0.10178592652568401
0.41556792655532765,-0.07917372064811537,-0.10246660840273762
0.41605625549370057,-0.07265342299466543,-0.0976853441314066
0.41654458443207343,-0.06390460310058685,-0.08793510428092774
0.41703291337044635,-0.05384050578690047,-0.07448490388359513
0.4175212423088192,-0.03878500318060924,-0.058897854606279776
0.4180095712471921,-0.01922561160487573,-0.041360414252603325
0.418497900185565,-0.004157807797021805,-0.023362041770924942
0.4189862291239379,0.0070141803801949,-0.00401558759460955
0.41947455806231077,0.02070988856505391,0.018798444170064904
0.4199628870006836,0.03687980859741509,0.04193821969818642
0.42045121593905654,0.05295501315634947,0.06156338005030561
0.4209395448774294,0.06446358051285063,0.07400110806700848
0.4214278738158023,0.07010279142500234,0.07833300056959355
0.4219162027541752,0.07403969574586775,0.08524356920815727
0.4224045316925481,0.07856728116528218,0.10370611086060057
0.42289286063092096,0.08279590251643985,0.12813336216391294
0.4233811895692939,0.084123129872009,0.1489249391060671
0.42386951850766674,0.08147356785888693,0.15702153666169533
0.42435784744603966,0.0732275688212944,0.15030415073701153
0.4248461763844125,0.058939697646362046,0.1435656129827861
0.42533450532278544,0.04808647249052678,0.1466323902040566
0.4258228342611583,0.043134593646422144,0.13754343172682168
0.4263111631995312,0.03119858358946907,0.08143896697100347
0.4267994921379041,0.012297248726458333,-0.016574252729814463
0.427287821076277,-0.0017256064545148552,-0.0998772089243831
0.42777615001464986,-0.012172247190742332,-0.12504053118757677
0.4282644789530228,-0.025654506306998188,-0.11166396445346664
0.42875280789139564,-0.04072328392721296,-0.1023662047267325
0.4292411368297685,-0.05322668074959465,-0.1053911626099986
0.4297294657681414,-0.06176405216402095,-0.103017361306778
0.4302177947065143,-0.06837704982098534,-0.09048956533517025
0.4307061236448872,-0.07406585457808375,-0.08235071205095092
0.43119445258326006,-0.07606993130659637,-0.08510801978696368
0.431682781521633,-0.07447735577254039,-0.08530531959844834
0.43217111046000584,-0.07387375119705458,-0.06709258529534462
0.43265943939837875,-0.0733287518142156,-0.032102496174335304
0.4331477683367516,-0.06463976044964181,-6.153346867739107e-05
0.43363609727512453,-0.04844831290592188,0.014815092131144035
0.4341244262134974,-0.03416268278286015,0.007417957375255482
0.4346127551518703,-0.021909506354393395,-0.026677059960956154
0.4351010840902432,-0.008494336391337232,-0.07244243009940356
0.4355894130286161,0.00436730777585106,-0.09695928351087393
0.43607774196698895,0.015729736217573956,-0.08659830943373915
0.43656607090536187,0.0249230269725138,-0.054075243231756255
0.43705439984373473,0.03431092259421077,-0.008351657006867665
0.43754272878210765,0.04697910701591058,0.047753883025333094
0.4380310577204805,0.060815224892077115,0.09168200613273392
0.43851938665885337,0.07169874022198501,0.0964811504110285
0.4390077155972263,0.07922233999527141,0.07663078137390074
0.43949604453559915,0.08663602411415616,0.06779545159109099
0.43998437347397207,0.08889397843066779,0.0723405324767275
0.44047270241234493,0.08095309953109107,0.07357887875072167
0.44096103135071785,0.07342817326091743,0.0685524741785586
0.4414493602890907,0.0678571502725313,0.058674083527359776
0.4419376892274636,0.05245377257935733,0.043048781532508365
0.4424260181658365,0.03245426948973014,0.0296062264287941
0.4429143471042094,0.022755506229749135,0.028789791693308083
0.44340267604258227,0.024708614721775504,0.034774726154060145
0.4438910049809552,0.02318333939599631,0.034047993673681
0.44437933391932805,0.004329473905056292,0.02723811177993473
0.44486766285770096,-0.024416673664686105,0.022536272158731777
0.4453559917960738,-0.048301350464002454,0.014569452608569712
0.44584432073444674,-0.06326560933054734,-0.005598391404068211
0.4463326496728196,-0.07155211460908362,-0.027023981001640898
0.44682097861119247,-0.0767967433436654,-0.03517859172193258
0.4473093075495654,-0.08131107856696569,-0.03533281949593576
0.44779763648793824,-0.08380100763068937,-0.03873182690673135
0.44828596542631116,-0.07994836096824667,-0.04328688749428733
0.448774294364684,-0.0718442429680219,-0.039616623653597485
0.44926262330305694,-0.07037338278179764,-0.031207932695833628
0.4497509522414298,-0.07272021272031684,-0.03362616392773766
0.4502392811798027,-0.06599128781270973,-0.04830157137927074
0.4507276101181756,-0.05040410151024849,-0.062185323144925246
0.4512159390565485,-0.029757813598175597,-0.0746193506546895
0.45170426799492136,-0.01058802003980205,-0.09284019681594016
0.4521925969332943,-0.0014188580777717776,-0.1071476651885914
0.45268092587166714,0.005876795026196918,-0.09921588074086188
0.45316925481004006,0.021413243608588754,-0.06742959226647398
0.4536575837484129,0.03930545903829851,-0.02653175630012882
0.45414591268678584,0.05196463395309041,0.011507966214097567
0.4546342416251587,0.0618612464981084,0.04166636537449052
0.4551225705635316,0.07166403674987266,0.054834231010258055
0.4556108995019045,0.07697535615157966,0.04826001951372847
0.45609922844027734,0.07714309701771392,0.04017028954247646
0.45658755737865026,0.07507348004948088,0.051280647716740776
0.4570758863170231,0.0700603787566908,0.08301207470458483
0.45756421525539603,0.06441513065313217,0.11573852028181017
0.4580525441937689,0.06040022175719937,0.12812099240805117
0.4585408731321418,0.05515141379753052,0.12086975687250633
0.4590292020705147,0.045311342575078954,0.10380582368563374
0.4595175310088876,0.030290480345719566,0.07444105825687143
0.46000585994726045,0.015168693281282397,0.03170002184049843
0.46049418888563337,0.0025463198309989953,-0.015646773422358283
0.46098251782400623,-0.009402586000191115,-0.060548396484794986
0.46147084676237915,-0.01937153824974716,-0.09420363713573643
0.461959175700752,-0.030562462605921277,-0.10348389960754284
0.46244750463912493,-0.045566044044280545,-0.09056355159069505
0.4629358335774978,-0.05861721790285224,-0.07579647882192136
0.4634241625158707,-0.07109628759006356,-0.06915391037450094
0.46391249145424357,-0.0852061486703405,-0.061195900434061326
0.46440082039261643,-0.09054845882022881,-0.04618671051597731
0.46488914933098935,-0.08314807676583423,-0.0320614771124988
0.4653774782693622,-0.07555940238012235,-0.02902232314732118
0.4658658072077351,-0.07449054121849295,-0.038950524540210425
0.466354136146108,-0.07184692727714341,-0.05041748666722658
0.4668424650844809,-0.06336437070545899,-0.048251185473176236
0.46733079402285377,-0.051155185183336914,-0.03209315559893157
0.4678191229612267,-0.03803042278322216,-0.008151345078155257
0.46830745189959955,-0.025433000910933198,0.023737574169210435
0.46879578083797246,-0.009730142853997573,0.04557803916629469
0.4692841097763453,0.006219641898957673,0.02724216051681484
0.46977243871471824,0.01707942378139378,-0.023328830938927583
0.4702607676530911,0.027113196677971588,-0.06486996511927098
0.470749096591464,0.04048452143725321,-0.0710559065816094
0.4712374255298369,0.05599223640576861,-0.04049214814663633
0.4717257544682098,0.06737512319706952,0.015337517466521719
0.47221408340658266,0.07199328622735059,0.0705871043967258
0.4727024123449556,0.07785001698050543,0.10357035028008843
0.47319074128332844,0.08603102114752977,0.11904965942147169
0.4736790702217013,0.08692121452343554,0.12990779118761017
0.4741673991600742,0.07709107621880908,0.13490531261382216
0.4746557280984471,0.06379947647935906,0.12772541495305
0.47514405703682,0.055711869204801125,0.1137333506561869
0.47563238597519286,0.05026861580066855,0.10248299766944433
0.4761207149135658,0.040759169077874274,0.09208847066004866
0.47660904385193864,0.026931163821894363,0.0737221794840831
0.47709737279031156,0.010238502412736841,0.03776476015533904
0.4775857017286844,-0.004752773527642933,-0.01795690960650269
0.47807403066705734,-0.01653642458116915,-0.0714170291984664
0.4785623596054302,-0.030837661363383173,-0.09592702079253523
0.4790506885438031,-0.04640600669698047,-0.09718048024903023
0.479539017482176,-0.058311865938434654,-0.09906732692666866
0.4800273464205489,-0.0683750399065963,-0.10279542061651012
0.48051567535892176,-0.07650506957244413,-0.0920010230040155
0.4810040042972947,-0.07917129823895881,-0.07273854868212275
0.48149233323566754,-0.07937542825552771,-0.06709404365197982
0.48198066217404045,-0.08062900264301696,-0.07343702513716059
0.4824689911124133,-0.07758225228887064,-0.07152067819870411
0.4829573200507862,-0.06770738898029702,-0.05393436079348639
0.4834456489891591,-0.05636210618422942,-0.03144981852777767
0.48393397792753196,-0.04691898104511117,-0.018104548588930652
0.4844223068659049,-0.03943445970487636,-0.02202608622008192
0.48491063580427773,-0.02968790836858758,-0.04027549838151891
0.48539896474265065,-0.013449559652331678,-0.05499093586812315
0.4858872936810235,0.005480787166553366,-0.051238683754232094
0.48637562261939643,0.022379926365809398,-0.03160816489416663
0.4868639515577693,0.03649787591155762,-0.002697636302100733
0.4873522804961422,0.047793194938118296,0.027710914338703627
0.48784060943451507,0.05720157617999159,0.04482414936617441
0.488328938372888,0.06441068047220179,0.04113735288695938
0.48881726731126085,0.06836299415084815,0.030428264799597017
0.48930559624963377,0.0717408358992197,0.034569276991032294
0.48979392518800663,0.07657259553346206,0.05908106613244024
0.49028225412637955,0.0783968183430603,0.09019826782233242
0.4907705830647524,0.07353749246073817,0.10927845157297544
0.49125891200312527,0.06821129639435704,0.10693509461155501
0.4917472409414982,0.06601381652048914,0.08420516110082238
0.49223556987987105,0.059214759217188745,0.04941399569080495
0.49272389881824397,0.047177356012853756,0.02338513400612159
0.49321222775661683,0.037103921342621964,0.017174150274714438
0.49370055669498975,0.026814105051261673,0.01177976297391127
0.4941888856333626,0.01094947564626528,-0.004910458455785174
0.4946772145717355,-0.007415166608333642,-0.021823961936021496
0.4951655435101084,-0.022858898866083537,-0.034660678751500154
0.4956538724484813,-0.038012190129927244,-0.04509037983196475
0.49614220138685416,-0.055338851268072364,-0.045249313650225276
0.4966305303252271,-0.06646523708001296,-0.02665905760976526
0.49711885926359994,-0.06825244364904921,0.0007078296462904449
0.49760718820197286,-0.07070723747767196,0.009335402090403011
0.4980955171403457,-0.07858513169819618,-0.009225273824883404
0.49858384607871864,-0.08351191439576862,-0.033195341021944304
0.4990721750170915,-0.07982931242135216,-0.04154148783314739
0.4995605039554644,-0.07463499682201452,-0.02935360870472243
0.5000488328938373,-0.07014136885375487,-0.014325860937239046
0.5005371618322102,-0.05804879777006111,-0.02075404979421512
0.501025490770583,-0.03879207354898261,-0.036665730334027063
0.5015138197089559,-0.02261312287267438,-0.03197459475222157
0.5020021486473288,-0.01483873146361958,-0.00968717767557483
0.5024904775857018,-0.006934202203960146,0.010591628003865898
0.5029788065240746,0.011133798527171258,0.024395138325305175
0.5034671354624475,0.03429989363231112,0.030341305812252268
0.5039554644008204,0.0515641145147467,0.02289353447930998
0.5044437933391933,0.05719652142414167,0.009208310373459393
0.5049321222775661,0.0571193515143993,0.006866353816536587
0.505420451215939,0.062062627661757686,0.01856499686160243
0.505908780154312,0.07168828878337861,0.03565244864422269
0.5063971090926849,0.07870767824240163,0.059368182724927845
0.5068854380310577,0.07944482409129108,0.08460573876417457
0.5073737669694306,0.07900225328984306,0.09447729094360774
0.5078620959078035,0.07784842143218587,0.09364694157322699
0.5083504248461764,0.06778954349600065,0.09763924056799683
0.5088387537845492,0.05414954533830276,0.10133353365657577
0.5093270827229222,0.04535909689992111,0.09430186496082417
0.5098154116612951,0.037047195683775645,0.08176196612846398
0.5103037405996679,0.024542430021876265,0.0695809433207124
0.5107920695380408,0.006016166348109939,0.047271736106806024
0.5112803984764137,-0.014720161181660862,0.006883026165776773
0.5117687274147866,-0.03045584953465055,-0.03715604525532846
0.5122570563531594,-0.03933106531709904,-0.06195971608898884
0.5127453852915324,-0.043844607019434954,-0.06116042990642415
0.5132337142299053,-0.05406153029854896,-0.05195902085816479
0.5137220431682782,-0.07310892109540018,-0.05806517808499407
0.514210372106651,-0.0854199011158381,-0.0818471389589301
0.5146987010450239,-0.08305386253998939,-0.0990543606116575
0.5151870299833968,-0.07734829788455812,-0.0889650036952866
0.5156753589217697,-0.07813809442212774,-0.060614033382550586
0.5161636878601426,-0.08048072449084805,-0.03985813605609654
0.5166520167985155,-0.07469342304777965,-0.040608691267015606
0.5171403457368884,-0.059266966130872706,-0.054851772586124725
0.5176286746752613,-0.041066002771170826,-0.06243185238215578
0.5181170036136341,-0.030099244167605337,-0.05699792463975638
0.518605332552007,-0.026321019341464476,-0.04760290871392353
0.5190936614903799,-0.01863792590030218,-0.03209795273214201
0.5195819904287527,-0.002060397489527948,-0.004419843286844494
0.5200703193671257,0.01970335601545337,0.027706238919884645
0.5205586483054986,0.03961943402485268,0.053876537725510903
0.5210469772438715,0.05223120510044838,0.07251722823793308
0.5215353061822443,0.05850858648549185,0.08361259506460222
0.5220236351206172,0.06245151957463357,0.08308561182431523
0.5225119640589901,0.0667322037624294,0.07773592952367646
0.5230002929973631,0.07129717289748677,0.08354343051681906
0.5234886219357359,0.0755838971777272,0.09646414047469998
0.5239769508741088,0.07706135687905198,0.09334818557302146
0.5244652798124817,0.0720159590255349,0.06798295494224087
0.5249536087508546,0.06424543186548248,0.04162320259432842
0.5254419376892274,0.05703837012259246,0.03130244255646736
0.5259302666276003,0.04736361847717113,0.03498898462387793
0.5264185955659733,0.03648653608920261,0.0485337813908198
0.5269069245043461,0.025610851723673625,0.0635425661050744
0.527395253442719,0.01120108825400792,0.06746168766191063
0.5278835823810919,-0.007762214691630631,0.06013727734954922
0.5283719113194648,-0.026688643888857843,0.03987070464559324
0.5288602402578376,-0.04126436981839124,-0.005092463201917422
0.5293485691962105,-0.0522924571527952,-0.06508353896744451
0.5298368981345835,-0.05839287948231066,-0.10071528365655176
0.5303252270729564,-0.05937687393792294,-0.09194210200812823
0.5308135560113292,-0.0628926022174105,-0.07080127243615336
0.5313018849497021,-0.07270583793629959,-0.07651407380333664
0.531790213888075,-0.0813360700665324,-0.10659433816662635
0.5322785428264479,-0.08074095192116279,-0.13311799024192394
0.5327668717648207,-0.0756323796753308,-0.13690285325843518
0.5332552007031937,-0.07042004503273395,-0.11677390180776984
0.5337435296415666,-0.05926266292865766,-0.08644589667548222
0.5342318585799395,-0.045902244152971,-0.06744988775400672
0.5347201875183123,-0.03490171556902541,-0.06827045056238341
0.5352085164566852,-0.01940644676664547,-0.06842094633996801
0.5356968453950581,-0.003870437385459443,-0.04798242960455729
0.5361851743334309,0.004140512653528718,-0.022616939792362248
0.5366735032718039,0.012399608155630322,-0.013983106373295362
0.5371618322101768,0.026463075912877547,-0.013798792757259752
0.5376501611485497,0.04028912246405058,-0.008237616928902458
0.5381384900869225,0.04980273315181942,-0.0007301627617703199
0.5386268190252954,0.061059352743554486,0.00913459610612917
0.5391151479636683,0.076287653122125,0.033560006201023874
0.5396034769020412,0.08518082823050184,0.0649625936870543
0.540091805840414,0.08282101955025806,0.07865759333912496
0.540580134778787,0.07672461920441025,0.07561019747983057
0.5410684637171599,0.07258222640837637,0.073334263884783
0.5415567926555328,0.0682215449853295,0.06740342025242729
0.5420451215939056,0.06016835572046095,0.04356978280329968
0.5425334505322785,0.04631153265018963,0.01301158767013718
0.5430217794706514,0.03007551125991302,0.0025011487188869586
0.5435101084090244,0.020262853298064473,0.01045032861669553
0.5439984373473972,0.013564116354345622,0.0068340797167412036
0.5444867662857701,0.0007866420068893859,-0.02164772822132172
0.544975095224143,-0.015370423782356788,-0.05731134128355096
0.5454634241625158,-0.031135620649251895,-0.07694208509778772
0.5459517531008887,-0.04572580195955289,-0.07352494616202437
0.5464400820392616,-0.056079469125170596,-0.06079631487604482
0.5469284109776346,-0.06150260470614886,-0.05919884776236089
0.5474167399160074,-0.06606323437275587,-0.06944453526887293
0.5479050688543803,-0.07322214846595389,-0.06992147131675049
0.5483933977927532,-0.07768794534843322,-0.04876959044181225
0.5488817267311261,-0.0747664940388507,-0.026309319177555385
0.5493700556694989,-0.0704522980958278,-0.03244803509608858
0.5498583846078718,-0.0697145966491861,-0.06355578127118253
0.5503467135462448,-0.06815325619718311,-0.08233074532523611
0.5508350424846177,-0.058045536435056964,-0.0630853912749474
0.5513233714229905,-0.041354303729756986,-0.01786193773353474
0.5518117003613634,-0.026377710668739052,0.02182281917921977
0.5523000292997363,-0.013185071003626163,0.03803986349800624
0.5527883582381092,0.00020832102356649064,0.03692086321818957
0.553276687176482,0.012689574644977171,0.0348978555502472
0.553765016114855,0.025189792048251922,0.04218718611798259
0.5542533450532279,0.038660790791433246,0.05694681158566414
0.5547416739916007,0.051799692809667355,0.07460572017574209
0.5552300029299736,0.062108889896673514,0.0916324454414926
0.5557183318683465,0.07085808524197314,0.1017839068700763
0.5562066608067194,0.07784144135061913,0.10176558699930241
0.5566949897450922,0.07720993141879927,0.0928310136236551
0.5571833186834652,0.0756374404614425,0.07469771227090406
0.5576716476218381,0.08060499378189159,0.04634309895622532
0.558159976560211,0.0804481182955196,0.013228702828180089
0.5586483054985838,0.07048711076717384,-0.013621458011686613
0.5591366344369567,0.05792131440790644,-0.023538214412566476
0.5596249633753296,0.0435397286286511,-0.010835780343085806
0.5601132923137025,0.025895047919779916,0.011401177465463631
0.5606016212520754,0.006806792351399905,0.014990114155348929
0.5610899501904483,-0.00700519377084278,-0.007290813518913081
0.5615782791288212,-0.014307059961517472,-0.03375413744636803
0.5620666080671941,-0.023721275915522137,-0.05276963313868228
0.5625549370055669,-0.0357361512299536,-0.0760056340398067
0.5630432659439398,-0.04530086663294471,-0.10434580026032143
0.5635315948823127,-0.053938288765716144,-0.11484711529724234
0.5640199238206856,-0.06437232982146858,-0.09088862284308234
0.5645082527590585,-0.07415761490235775,-0.04402834738787429
0.5649965816974314,-0.07772026970473786,-0.010363562971597656
0.5654849106358043,-0.0772512617432983,-0.017293807937662997
0.5659732395741771,-0.07773065818254962,-0.04674773859908564
0.56646156851255,-0.07464736025943496,-0.06189599449158662
0.566949897450923,-0.06580799283783637,-0.049637493425721005
0.5674382263892959,-0.055229901753480824,-0.020751552582436723
0.5679265553276687,-0.04432536222542459,0.005870922215185738
0.5684148842660416,-0.03149480593466451,0.022127755805237903
0.5689032132044145,-0.014514938625790315,0.030791717373816817
0.5693915421427874,0.001849923236921001,0.034578544531367626
0.5698798710811602,0.013372991726983708,0.039764096935433375
0.5703682000195331,0.027569331382216476,0.0514230955804329
0.5708565289579061,0.04606460504635106,0.06696698044956964
0.571344857896279,0.06007355257209687,0.0788899645330193
0.5718331868346518,0.0679742721145995,0.07908390703661138
0.5723215157730247,0.0731435268420815,0.07839791206903306
0.5728098447113976,0.07610368535171722,0.09980920483279035
0.5732981736497704,0.07663120114343061,0.1306044705402058
0.5737865025881433,0.07584332498330054,0.12995197875132125
0.5742748315265163,0.0748253300861639,0.0925100233084157
0.5747631604648892,0.0723937353193617,0.05205567607591306
0.575251489403262,0.07025841823539472,0.026042082955997956
0.5757398183416349,0.06821596310091652,0.006080360443731787
0.5762281472800078,0.0592286447147411,-0.01152330933692209
0.5767164762183807,0.04241402464667889,-0.02507445013978607
0.5772048051567535,0.02250360589692206,-0.03343006110669348
0.5776931340951265,0.00317748544181472,-0.033991544915632076
0.5781814630334994,-0.013300420013656125,-0.03051652833970001
0.5786697919718723,-0.026785316444931005,-0.02643076933146853
0.5791581209102451,-0.037641677195223745,-0.02232982711513193
0.579646449848618,-0.04956428554424434,-0.02437427309141501
0.5801347787869909,-0.06392682234624564,-0.028691240633778346
0.5806231077253637,-0.0759356306685074,-0.029231863365186725
0.5811114366637367,-0.08176034277784876,-0.038085257963415026
0.5815997656021096,-0.08008540609571627,-0.05715892823698805
0.5820880945404825,-0.0769842707075358,-0.06783280041524142
0.5825764234788553,-0.07695428685705513,-0.06145591971014894
0.5830647524172282,-0.073279097562247,-0.04923368722856074
0.5835530813556011,-0.064414182775258,-0.043441496054400605
0.584041410293974,-0.054692736672749,-0.03932316811045347
0.5845297392323469,-0.045564081866126094,-0.025174170592833858
0.5850180681707198,-0.03810273468192939,-0.0018041380331757784
0.5855063971090927,-0.03032005273440443,0.023229374879953208
0.5859947260474656,-0.01628063475179519,0.04851328780350407
0.5864830549858384,0.005457946381118958,0.06927596904982536
0.5869713839242113,0.02602364774957794,0.06934455731491791
0.5874597128625842,0.040969656010693745,0.04747472752218112
0.5879480418009572,0.05619493180394572,0.03110104490217308
0.58843637073933,0.06794673286669847,0.039192412206386584
0.5889246996777029,0.07142907009188737,0.05664583143518359
0.5894130286160758,0.0752529758137337,0.05667443905598418
0.5899013575544486,0.08242480940079414,0.03635524210209714
0.5903896864928215,0.0871487128179179,0.022422211035199105
0.5908780154311944,0.08306389146949228,0.03204779698641208
0.5913663443695674,0.06907018825570506,0.0533197287284039
0.5918546733079402,0.055503902669455284,0.07711815407361944
0.5923430022463131,0.04702073487602869,0.101563486355212
0.592831331184686,0.03857614042094265,0.10730782653866043
0.5933196601230589,0.029112186254562796,0.07725506554458011
0.5938079890614317,0.01909001368036535,0.029398619887358274
0.5942963179998046,0.008901921665976788,-0.0023708196039314757
0.5947846469381776,-0.0025502460169707936,-0.012501745676591002
0.5952729758765505,-0.018483281432086256,-0.02678520765824015
0.5957613048149233,-0.037492930644688824,-0.05651197044268859
0.5962496337532962,-0.05129015885425223,-0.08193008067074745
0.5967379626916691,-0.054232841052530095,-0.09218186589321029
0.597226291630042,-0.056065229082705774,-0.09520407476314548
0.5977146205684148,-0.06639508574916045,-0.09568490727893703
0.5982029495067878,-0.07810096965173759,-0.09779918435397388
0.5986912784451607,-0.08350941026512312,-0.10324221044194277
0.5991796073835335,-0.08363358483884445,-0.1051343215896815
0.5996679363219064,-0.0808356684518976,-0.09680642168761139
0.6001562652602793,-0.07400255527176162,-0.07660296100070985
0.6006445941986522,-0.061525257426342815,-0.04972614678166181
0.601132923137025,-0.048230611992587026,-0.028145275763656306
0.601621252075398,-0.03832201934144553,-0.024570864728355544
0.6021095810137709,-0.02774472572190837,-0.037223102189681036
0.6025979099521438,-0.013365552714954054,-0.045334746049841015
0.6030862388905166,0.001898435451787302,-0.0382371911540801
0.6035745678288895,0.015412307046474226,-0.02553484064334039
0.6040628967672624,0.030335328674494493,-0.010071851393051133
0.6045512257056354,0.04778902737112719,0.016247486413533862
0.6050395546440082,0.06015831672532586,0.05480795053655046
0.6055278835823811,0.0657777117575299,0.09247526774106188
0.606016212520754,0.0717120848289972,0.1072159818010685
0.6065045414591269,0.07972290487390996,0.09198543642006177
0.6069928703974997,0.08413580443940975,0.0663859042429279
0.6074811993358726,0.08124405541789546,0.05283156099224584
0.6079695282742456,0.07688869266283675,0.05728859318567023
0.6084578572126184,0.07534863875168857,0.06745825465045918
0.6089461861509913,0.07156166207452441,0.06213431192695851
0.6094345150893642,0.06281255711509591,0.03358826487986982
0.6099228440277371,0.050378880758609294,-0.0008264776392242629
0.6104111729661099,0.03404248151803278,-0.01608988203539501
0.6108995019044828,0.01411451198785001,-0.012603996814581216
0.6113878308428558,-0.00446183285043549,-0.01319427454723503
0.6118761597812287,-0.0143009054641319,-0.026102035443098172
0.6123644887196015,-0.021177265764506306,-0.038133797073931094
0.6128528176579744,-0.036458570743641706,-0.037683416753060583
0.6133411465963473,-0.05331114050544077,-0.030597810585089223
0.6138294755347202,-0.06007039698823476,-0.033534538862215676
0.614317804473093,-0.059596582426422205,-0.049126317143800266
0.614806133411466,-0.06404434968600567,-0.061093715669258045
0.6152944623498389,-0.0763883925517323,-0.05766902680313303
0.6157827912882118,-0.08244967466383638,-0.04276378351535393
0.6162711202265846,-0.0764782194027598,-0.023413596132355836
0.6167594491649575,-0.06992378355543945,-0.0017980413368826748
0.6172477781033304,-0.0660986638926851,0.013406471830397837
0.6177361070417032,-0.05958675811215046,0.01203067920275152
0.6182244359800761,-0.049968407949002785,0.003143076152569771
0.6187127649184491,-0.03952078594099813,-0.0007679864294734828
0.619201093856822,-0.026108635694106673,-0.011795557012014204
0.6196894227951948,-0.005883401306382023,-0.048182185442444264
0.6201777517335677,0.01457390470721848,-0.09633043154832574
0.6206660806719406,0.027248421038299036,-0.11269226149360342
0.6211544096103135,0.036808434606135136,-0.07169620360490442
0.6216427385486863,0.051039742711776206,-0.0014056254319896391
0.6221310674870593,0.06813662520631081,0.052144032287170385
0.6226193964254322,0.07838502750850088,0.07848293604721453
0.6231077253638051,0.07966173189240203,0.09204478951695468
0.6235960543021779,0.07777806109067512,0.09687435110288373
0.6240843832405508,0.07788250549070147,0.09017748895319433
0.6245727121789237,0.08070570940071849,0.0778332460222171
0.6250610411172965,0.0755505127890406,0.0650648672569338
0.6255493700556695,0.05919818154627052,0.04975910042188547
0.6260376989940424,0.045673903752745576,0.031811016301207265
0.6265260279324153,0.039148617174431105,0.014890255294334416
0.6270143568707881,0.030746319422453535,0.0028497539924915993
0.627502685809161,0.016983166620563095,-0.00010858091840589695
0.6279910147475339,0.0034856224171975277,0.004818564451919097
0.6284793436859069,-0.006893349723054704,0.005733422529663546
0.6289676726242797,-0.021947461265998894,-0.005961521964200654
0.6294560015626526,-0.04232209698191543,-0.024029835331605846
0.6299443305010255,-0.05712812866617794,-0.032835195318015806
0.6304326594393984,-0.06493448497222933,-0.024172356547245054
0.6309209883777712,-0.07279784661708817,-0.009980584315390575
0.6314093173161441,-0.08237900816076718,-0.007025070627714583
0.631897646254517,-0.08765300427935709,-0.018788241648260352
0.63238597519289,-0.08532066364403842,-0.034331878987794294
0.6328743041312628,-0.08102905640433729,-0.04658686134769226
0.6333626330696357,-0.076752077482117,-0.06398809194502106
0.6338509620080086,-0.06858812349423446,-0.08593348664583278
0.6343392909463814,-0.05701392685319158,-0.09518722441952658
0.6348276198847543,-0.04562999522491608,-0.08237911195668687
0.6353159488231273,-0.03449309956347923,-0.055192268391785815
0.6358042777615002,-0.01768702305744165,-0.025419649068741917
0.636292606699873,0.0037103527855879177,0.0025478919281615034
0.6367809356382459,0.01800767788597415,0.029175121918242636
0.6372692645766188,0.026267722573822823,0.053330630957789546
0.6377575935149917,0.038530445534466766,0.07012976542415071
0.6382459224533645,0.053727080180918166,0.0793088156324281
0.6387342513917375,0.06617016067355018,0.08743997098783532
0.6392225803301104,0.07243764556919847,0.09246264766215018
0.6397109092684833,0.07256672514553893,0.0898274413482975
0.6401992382068561,0.06881876834503048,0.0896944320752492
0.640687567145229,0.06428980155039796,0.10325327403651897
0.6411758960836019,0.06488631381841257,0.1251554042990994
0.6416642250219748,0.06881192011677288,0.13921680130325292
0.6421525539603476,0.06806308522589458,0.13401934529305154
0.6426408828987206,0.05988903766753329,0.11133764020884171
0.6431292118370935,0.043723733808691614,0.08152713795249258
0.6436175407754663,0.026398014960464393,0.05449967068832824
0.6441058697138392,0.015441154153309586,0.03483908114222907
0.6445941986522121,0.004556786509861549,0.02199187472489948
0.645082527590585,-0.009199760946891022,0.009411793962078502
0.6455708565289578,-0.018889543918587333,-0.013981128229439359
0.6460591854673308,-0.025952384830553732,-0.0490958637165466
0.6465475144057037,-0.03934947495511778,-0.0796462276371449
0.6470358433440766,-0.05937045988569153,-0.09307720727448222
0.6475241722824494,-0.07499435492836673,-0.098859656157231
0.6480125012208223,-0.08046386524416589,-0.10996448102253228
0.6485008301591952,-0.08169026283012522,-0.12063330501531659
0.6489891590975682,-0.0810515282668314,-0.12171076146511357
0.649477488035941,-0.07634703563270104,-0.11759624697345303
0.6499658169743139,-0.06897160668167494,-0.11047432566257709
0.6504541459126868,-0.061754922690875375,-0.09127269695846793
0.6509424748510597,-0.05594222659371337,-0.060327295963763
0.6514308037894325,-0.04780640111840953,-0.03285614361082212
0.6519191327278054,-0.03515594117461801,-0.015418775260991752
0.6524074616661784,-0.021505874583073317,-0.0025599069571692404
0.6528957906045512,-0.00659194786655366,0.0010281938659564421
0.6533841195429241,0.010157631243719972,-0.009482901405956453
0.653872448481297,0.023963764971244358,-0.014077596637293636
0.6543607774196699,0.032727587826576796,0.0064368947952248845
0.6548491063580427,0.04091207449761544,0.038305915036701936
0.6553374352964156,0.051260255802825845,0.05686159703809876
0.6558257642347886,0.061435301542198686,0.05937618947722903
0.6563140931731615,0.0712182674531744,0.06218169595356359
0.6568024221115343,0.07939844706746763,0.07541156953231679
0.6572907510499072,0.08121188511615542,0.08935302042020973
0.6577790799882801,0.07640454637316797,0.08479982418151724
0.658267408926653,0.06830592936740011,0.057461847534083
0.6587557378650258,0.06112677453334577,0.029955162442261964
0.6592440668033988,0.05811547584395951,0.024529215988914888
0.6597323957417717,0.053959821623674346,0.031024097621958246
0.6602207246801446,0.042977719580254405,0.02660655121546008
0.6607090536185174,0.0279474290070608,0.013952405961405769
0.6611973825568903,0.011372718039315367,0.0069002327801450745
0.6616857114952632,-0.005324609805145744,0.002285391776257786
0.662174040433636,-0.01965368840929495,-0.008966895591223488
0.662662369372009,-0.03176803666674274,-0.029305107596167935
0.6631506983103819,-0.04460732207808621,-0.05588024540265881
0.6636390272487548,-0.05771940849665437,-0.08547025019228338
0.6641273561871276,-0.06655634306345443,-0.11496164591757513
0.6646156851255005,-0.07315277439397992,-0.1304420931971742
0.6651040140638734,-0.07959430878614403,-0.12043059846685654
0.6655923430022463,-0.08277425830228094,-0.09701708287226801
0.6660806719406192,-0.08525815748959778,-0.0758702112693474
0.6665690008789921,-0.08557783739704082,-0.05866781727187655
0.667057329817365,-0.07657609779818288,-0.04560717093681964
0.6675456587557379,-0.060637398001813655,-0.03696062569967373
0.6680339876941107,-0.04687907591178816,-0.027588062135806623
0.6685223166324836,-0.039071362255486235,-0.009468774026695142
0.6690106455708565,-0.029700408939192877,0.0212696882620067
0.6694989745092295,-0.013693584246599617,0.04048768615757666
0.6699873034476023,0.0023289154152586885,0.017017200240322085
0.6704756323859752,0.014820349664581667,-0.02331869645188758
0.6709639613243481,0.025329188276838485,-0.028292009675258138
0.6714522902627209,0.03576993650530374,0.0035023751853948334
0.6719406192010938,0.05028307087179322,0.03745710133312606
0.6724289481394667,0.06624122104450249,0.05704255730632922
0.6729172770778397,0.07547374421975452,0.07133264984474183
0.6734056060162125,0.07950991276490003,0.0867440763463122
0.6738939349545854,0.08368099506577086,0.09798313209447279
0.6743822638929583,0.083248538190783,0.10453134479304524
0.6748705928313312,0.07796795475288655,0.10308291010752277
0.675358921769704,0.0754841836346631,0.08377491381136824
0.6758472507080769,0.06906531008753561,0.05809342751373876
0.6763355796464499,0.05158477668345718,0.049317520101076845
0.6768239085848228,0.03445839794778441,0.055891262950906725
0.6773122375231956,0.02540830772498015,0.05380130454614775
0.6778005664615685,0.01603752610023728,0.024982236956710167
0.6782888953999414,-0.003010606304836947,-0.01874741258767426
0.6787772243383142,-0.02634932729768083,-0.04976071502704697
0.6792655532766871,-0.040010224400978706,-0.0639564650212603
0.6797538822150601,-0.04351743440497454,-0.08097508829383865
0.680242211153433,-0.04781564094266683,-0.11350162747727015
0.6807305400918058,-0.05818188946453956,-0.14589700004903067
0.6812188690301787,-0.06905479324591199,-0.15111637522411658
0.6817071979685516,-0.07326867775247617,-0.13620686324008383
0.6821955269069245,-0.07455972581330891,-0.13046162855312998
0.6826838558452973,-0.07727078522472093,-0.1282055247351057
0.6831721847836703,-0.07797341646603388,-0.10578220946547671
0.6836605137220432,-0.07526880471642908,-0.07210190362465818
0.6841488426604161,-0.06964493209926956,-0.048378556753244505
0.6846371715987889,-0.06041695848647188,-0.035127449863450524
0.6851255005371618,-0.04565337551410948,-0.025539126597448954
0.6856138294755347,-0.02508689747426101,-0.019843151133371664
0.6861021584139076,-0.006052053553321141,-0.01183921846927784
0.6865904873522805,0.005183245083133355,0.012781729798329899
0.6870788162906534,0.01236328486212883,0.045939903394577444
0.6875671452290263,0.022778813011746626,0.0610733325819629
0.6880554741673991,0.03797662733495863,0.059753857604983515
0.688543803105772,0.052190163278939085,0.06821179138270021
0.6890321320441449,0.06091250306033918,0.09452609737391166
0.6895204609825178,0.06580256929479707,0.12505725946552554
0.6900087899208907,0.07042974361614546,0.14535396967006692
0.6904971188592636,0.07595538330005457,0.14880906630293664
0.6909854477976365,0.0794105969398953,0.1348861893721062
0.6914737767360094,0.07781210907726209,0.1101575939266245
0.6919621056743822,0.07278157622132655,0.08396290552111042
0.6924504346127551,0.0663733713377174,0.05821629349865639
0.692938763551128,0.060213455114726276,0.0338166595377677
0.693427092489501,0.053563839272671575,0.01792133627314825
0.6939154214278738,0.039576026252321955,0.011492825769341308
0.6944037503662467,0.020983375479428405,0.000413458843771506
0.6948920793046196,0.006618146811206641,-0.01775371890993345
0.6953804082429925,-0.00664866500412056,-0.02161619381488388
0.6958687371813653,-0.020781156653811885,-0.013397370043038892
0.6963570661197382,-0.033485654013903424,-0.024423598262680302
0.6968453950581112,-0.04741013654365518,-0.055399770267613335
0.697333723996484,-0.06248011097737188,-0.07623541425296758
0.6978220529348569,-0.07308354881177737,-0.07737243932447473
0.6983103818732298,-0.07524482198431098,-0.07375540460879944
0.6987987108116027,-0.07283626099366809,-0.07981388664210949
0.6992870397499755,-0.07298995381375153,-0.09620236034580132
0.6997753686883484,-0.07681001781486041,-0.10610283997718545
0.7002636976267214,-0.07865514913493395,-0.1016388906449294
0.7007520265650943,-0.07221786685590217,-0.09430018420675848
0.7012403555034671,-0.06050579064588836,-0.08100633387604429
0.70172868444184,-0.049720180733718186,-0.049973919361132234
0.7022170133802129,-0.03676276010138528,-0.01131403596545174
0.7027053423185858,-0.020606045095753475,0.014813829590787926
0.7031936712569586,-0.006204557656242015,0.02201981815815186
0.7036820001953316,0.007803484924646569,0.019179729538699026
0.7041703291337045,0.023733021073402846,0.01802439527871708
0.7046586580720774,0.038014108241065075,0.027480841085290697
0.7051469870104502,0.04869183616462451,0.051541148061736694
0.7056353159488231,0.05934523982590488,0.08136061173034205
0.706123644887196,0.0721654239143783,0.10397620159140067
0.7066119738255688,0.08107870767867978,0.11896650395092337
0.7071003027639418,0.08206817584719618,0.12934209760593696
0.7075886317023147,0.08027568581694311,0.1259127631068418
0.7080769606406876,0.07780262145271652,0.10364049058609669
0.7085652895790604,0.07447915640178049,0.08429483815300208
0.7090536185174333,0.07070184202435106,0.09093070262012111
0.7095419474558062,0.06116673471624299,0.10763670369883208
0.7100302763941791,0.047268219613263864,0.09716794458031447
0.710518605332552,0.03695496586441727,0.05115284984942445
0.7110069342709249,0.028024797341365114,-0.0008417040318500837
0.7114952632092978,0.015782614891823643,-0.029282375193510592
0.7119835921476707,-0.00015084018542666552,-0.03283556781529806
0.7124719210860435,-0.018497688339370256,-0.027237754563830385
0.7129602500244164,-0.03636845015570884,-0.027519501963861426
0.7134485789627893,-0.05289007056583405,-0.037542560545492966
0.7139369079011623,-0.06292210874190311,-0.04280692816458259
0.7144252368395351,-0.06472757835256276,-0.033911693273736686
0.714913565777908,-0.0708978956438627,-0.029436567537829528
0.7154018947162809,-0.08420869758303201,-0.043422549192345096
0.7158902236546537,-0.09212708469447203,-0.06132363417943068
0.7163785525930266,-0.08793384783033621,-0.07405290947857017
0.7168668815313995,-0.07587879621435689,-0.08939791814994595
0.7173552104697725,-0.0652962454479189,-0.10308102874448516
0.7178435394081453,-0.05782339570265124,-0.10576925314752511
0.7183318683465182,-0.047943258969790174,-0.1036106411410354
0.7188201972848911,-0.03358919851968143,-0.09677283419407431
0.719308526223264,-0.01452052719123901,-0.06760796307684402
0.7197968551616368,0.0030923735458191284,-0.015331226052125418
0.7202851841000097,0.012364462626702474,0.03237596001378029
0.7207735130383827,0.01989133088280311,0.057996295194670144
0.7212618419767556,0.03179451412052181,0.07073077394000224
0.7217501709151284,0.04409219442721921,0.08560397002206958
0.7222384998535013,0.05378721217806686,0.10179156577429518
0.7227268287918742,0.06298176184207534,0.0985290712318667
0.7232151577302471,0.07410343920940672,0.06768522985511677
0.7237034866686199,0.0834447112422046,0.03905667196836662
0.7241918156069929,0.08482350582156212,0.03984527739532145
0.7246801445453658,0.07954683612219182,0.05281499569061354
0.7251684734837386,0.07119593212852213,0.051826383180626774
0.7256568024221115,0.06384518662184832,0.04365244634373823
0.7261451313604844,0.06283609395367916,0.045331236448528496
0.7266334602988573,0.05929122319699502,0.06100108079805315
0.7271217892372301,0.04297265889106758,0.08244771287260942
0.7276101181756031,0.02191010452139224,0.08821056890746101
0.728098447113976,0.005418359490070455,0.06580843308866044
0.7285867760523489,-0.008109441541412073,0.02750603893195904
0.7290751049907217,-0.0244142017022312,-0.016083538685088893
0.7295634339290946,-0.03940493755999069,-0.06512421082476458
0.7300517628674675,-0.047424177520435214,-0.10526266618486721
0.7305400918058405,-0.056190240033274386,-0.11204358615085949
0.7310284207442133,-0.06874603917962363,-0.08786354115470539
0.7315167496825862,-0.0790373197654033,-0.06394203604608052
0.7320050786209591,-0.08336093259959239,-0.06297272477885266
0.7324934075593319,-0.08122743721808327,-0.07690282974671304
0.7329817364977048,-0.07833125699027219,-0.07957022418949583
0.7334700654360777,-0.0770449422825189,-0.06570864512687023
0.7339583943744507,-0.07075003071356523,-0.0635683300058984
0.7344467233128235,-0.060249116075267325,-0.08319939612039365
0.7349350522511964,-0.050780210017357774,-0.09286742223567948
0.7354233811895693,-0.0397526224269862,-0.07289952877530004
0.7359117101279422,-0.026710611322569452,-0.04061600477430833
0.736400039066315,-0.013406484997286285,-0.01999780349849257
0.7368883680046879,0.000464638920805056,-0.020634618155455788
0.7373766969430608,0.012756450975068721,-0.030784095435752053
0.7378650258814338,0.024520209320232425,-0.029115526107950665
0.7383533548198066,0.03891579689842731,-0.005772453891531401
0.7388416837581795,0.055047808073714954,0.029715512825625925
0.7393300126965524,0.0673832867943755,0.053975660552047916
0.7398183416349253,0.07032341449603695,0.06028704597180552
0.7403066705732981,0.07048933273466021,0.06877131595923583
0.740794999511671,0.07561394362018824,0.08786051942337401
0.741283328450044,0.07841737618097558,0.1016817564412013
0.7417716573884168,0.07487229359642188,0.10278369945690842
0.7422599863267897,0.07135871799381015,0.10043681601001259
0.7427483152651626,0.06861706600136616,0.0965954537379157
0.7432366442035355,0.06204387109138271,0.08454254225052403
0.7437249731419083,0.04856794241237251,0.06641606933142152
0.7442133020802812,0.02918730427594717,0.052699188465431195
0.7447016310186542,0.011353556353449229,0.046194361034836956
0.7451899599570271,-0.0001536275330988683,0.03410200382625296
0.7456782888953999,-0.008751850240952935,0.0010825390361991413
0.7461666178337728,-0.019281281206399235,-0.04559122633055755
0.7466549467721457,-0.03580117699270559,-0.0750477689264212
0.7471432757105186,-0.05384467258787074,-0.07684926035429357
0.7476316046488914,-0.06470570589878309,-0.07666207176197064
0.7481199335872644,-0.0711659544407211,-0.08295564506712884
0.7486082625256373,-0.07581093801255898,-0.07159429791167758
0.7490965914640102,-0.07729037370751507,-0.040934970353441624
0.749584920402383,-0.0785654690059916,-0.023394020102445123
0.7500732493407559,-0.0768750512058341,-0.03247211156947842
0.7505615782791288,-0.06958339532742092,-0.047230043320727964
0.7510499072175016,-0.06249388017822112,-0.05283222493926319
0.7515382361558746,-0.05525609242916035,-0.052290643599248274
0.7520265650942475,-0.04282129709861719,-0.04667947838160741
0.7525148940326204,-0.026286166740293552,-0.04033231138856899
0.7530032229709932,-0.009957383897487227,-0.04351197486470593
0.7534915519093661,0.0034910163079460116,-0.05460875640079506
0.753979880847739,0.016363256530953895,-0.05710061751024274
0.754468209786112,0.02923507804583605,-0.036594266641806344
0.7549565387244848,0.04117489352545655,0.0017663466117101845
0.7554448676628577,0.05357760158382,0.035200796115679285
0.7559331966012306,0.06152509474339994,0.04780395501607676
0.7564215255396035,0.0656797542073346,0.04968019950072365
0.7569098544779763,0.07479121956705867,0.05853245848529988
0.7573981834163492,0.08567486793768003,0.07386732886737883
0.7578865123547222,0.09129637050540432,0.08165839542372813
0.7583748412930951,0.08925681533020784,0.07339184692402176
0.7588631702314679,0.07769754667094822,0.05755425721030259
0.7593514991698408,0.06124044245722813,0.048804585301307796
0.7598398281082137,0.04658306265008134,0.04704211823908443
0.7603281570465865,0.03656641796543118,0.0390101701547273
0.7608164859849594,0.02916736622119681,0.020551036026946832
0.7613048149233324,0.017192087311383317,0.0025783683239327046
0.7617931438617053,-0.0008124284737288856,-0.0063569316961734155
0.7622814728000781,-0.01728112111296742,-0.008550692779640018
0.762769801738451,-0.025861285068537517,-0.007428188974458887
0.7632581306768239,-0.034292248095893346,-0.0037910788239840926
0.7637464596151968,-0.050612058364850415,-0.005399102403013056
0.7642347885535696,-0.06197916008054774,-0.023703937399270493
0.7647231174919426,-0.06362943536611061,-0.05442191695242955
0.7652114464303155,-0.06545000025458302,-0.07845933073244464
0.7656997753686884,-0.06435801301283113,-0.08681245638912471
0.7661881043070612,-0.06428276667545227,-0.08810826499170994
0.7666764332454341,-0.07428456351050836,-0.08737718532878289
0.767164762183807,-0.08009705526223916,-0.07390548914992336
0.7676530911221799,-0.07206362741740412,-0.04502132983534993
0.7681414200605527,-0.0609181110743533,-0.022149735770055377
0.7686297489989257,-0.05085684608419352,-0.021703782396409417
0.7691180779372986,-0.03602225478759575,-0.032189309000188744
0.7696064068756714,-0.01678580004187484,-0.03222643427572051
0.7700947358140443,-0.0032214461708669918,-0.012302099266975595
0.7705830647524172,0.0023502007145417515,0.01909236380779365
0.7710713936907901,0.014770853877580025,0.04189833075305889
0.771559722629163,0.03652013193336656,0.05216370885023467
0.7720480515675359,0.050648747776317185,0.06905743638657016
0.7725363805059088,0.05438099797829758,0.09408654537713207
0.7730247094442817,0.058737116891491616,0.10125570389972507
0.7735130383826545,0.06794480804235634,0.08454508272139812
0.7740013673210274,0.07682767458020734,0.06694501104647768
0.7744896962594003,0.07987431287194302,0.061050974517406265
0.7749780251977733,0.07946864542470419,0.06728822955019187
0.7754663541361461,0.07839368821238304,0.08286981926263648
0.775954683074519,0.07460766995690768,0.08846505374896216
0.7764430120128919,0.06507708233074928,0.0684076678968025
0.7769313409512647,0.04863760317989046,0.032959188694501526
0.7774196698896376,0.030284631605891527,1.82570888375283e-05
0.7779079988280105,0.014344213888739656,-0.016898458514529896
0.7783963277663835,-0.000500445711545657,-0.008638779875697049
0.7788846567047563,-0.01282012878225758,0.015541444569204803
0.7793729856431292,-0.024611075120878515,0.025552353245845125
0.7798613145815021,-0.040395655673331234,0.003413459313928488
0.780349643519875,-0.05357183994055512,-0.03223430053988699
0.7808379724582478,-0.058346284855816936,-0.04779525706418743
0.7813263013966207,-0.059380821331338145,-0.03350482810621212
0.7818146303349937,-0.06351939509821677,-0.013532452655467764
0.7823029592733666,-0.0720562195550479,-0.013703814272731984
0.7827912882117394,-0.07736856635198638,-0.029798021943339338
0.7832796171501123,-0.07601647610711212,-0.04140202586345247
0.7837679460884852,-0.0737152444030031,-0.039868987295700556
0.7842562750268581,-0.07059905926616784,-0.031341081473299094
0.7847446039652309,-0.06339377772262986,-0.032660735311203164
0.7852329329036039,-0.05294581176481961,-0.0535081126332163
0.7857212618419768,-0.04018203416894395,-0.06811987319257415
0.7862095907803496,-0.028325015097179312,-0.045003087233646225
0.7866979197187225,-0.018469761059542594,-0.0033123361963407665
0.7871862486570954,-0.0038159999758454145,0.016067108674315773
0.7876745775954683,0.018591411315875463,0.01478567908722251
0.7881629065338411,0.042233466789176076,0.02256108549913013
0.788651235472214,0.05674317823350285,0.04526625985258384
0.789139564410587,0.05972060373583125,0.060225117492758364
0.7896278933489599,0.05942332788681926,0.054289813575269824
0.7901162222873327,0.061937622648180875,0.043787794683960976
0.7906045512257056,0.07029085074829367,0.047063878302782705
0.7910928801640785,0.08045005022710411,0.06174487641258637
0.7915812091024514,0.08103519987656038,0.07690910467149722
0.7920695380408243,0.07238936808188233,0.08124714603688102
0.7925578669791972,0.06398752416540027,0.0675655502037005
0.7930461959175701,0.0573191820704616,0.04423862267093834
0.793534524855943,0.04759251354499848,0.027011618452087556
0.7940228537943158,0.035453809600629146,0.02316245731125279
0.7945111827326887,0.024851640941442696,0.027825507996140003
0.7949995116710616,0.012194424446901277,0.027962779847133273
0.7954878406094344,-0.005323819839586939,0.013394971401199522
0.7959761695478074,-0.022897550256847428,-0.013727719671299498
0.7964644984861803,-0.036708693713674044,-0.042979377872205266
0.7969528274245532,-0.04692423691352584,-0.07187117312735257
0.797441156362926,-0.056281720007295484,-0.10299526819386465
0.7979294853012989,-0.0644681179153242,-0.12722336410938348
0.7984178142396718,-0.07082731197295475,-0.13571065198289473
0.7989061431780448,-0.08013053445402596,-0.1353259415569358
0.7993944721164176,-0.08870256300752744,-0.13498872360080597
0.7998828010547905,-0.08555365794899862,-0.12789268502352746
0.8003711299931634,-0.0730103619775952,-0.10611917389443536
0.8008594589315363,-0.062484518596605296,-0.08356899480011497
0.8013477878699091,-0.05631896209450203,-0.07696945725660106
0.801836116808282,-0.049300492212710004,-0.08277299030563481
0.802324445746655,-0.040435113629262456,-0.08440894365245125
0.8028127746850279,-0.029919087303050172,-0.06886238026572665
0.8033011036234007,-0.013474081460220244,-0.038042821473582206
0.8037894325617736,0.0073110367914281755,-0.005813536093220841
0.8042777615001465,0.02410476578060828,0.008828501652135484
0.8047660904385193,0.03560600455017465,0.0005800460718845095
0.8052544193768922,0.04423918152238335,-0.0032202870043021303
0.8057427483152652,0.05136575884917164,0.02337713417553971
0.8062310772536381,0.05988395773928559,0.06236437730234814
0.8067194061920109,0.0682489732388502,0.08352036734908651
0.8072077351303838,0.07374052894383377,0.09201368121278795
0.8076960640687567,0.07854151354135194,0.10399305959307799
0.8081843930071296,0.08375626181447342,0.11157007407574632
0.8086727219455024,0.08369135867839228,0.10808534066491407
0.8091610508838754,0.07587352780439544,0.10722914759032551
0.8096493798222483,0.06834607825576543,0.1129239918639196
0.8101377087606212,0.06129085963343049,0.1077841794964994
0.810626037698994,0.046778537101588975,0.07981942335297008
0.8111143666373669,0.026768973001724792,0.041339687584803185
0.8116026955757398,0.0067585735694009105,0.013417587547360898
0.8120910245141127,-0.009252050987549533,-0.0025344584095611617
0.8125793534524856,-0.019168145617282823,-0.01651124469105149
0.8130676823908585,-0.02874602532984558,-0.028747209883001598
0.8135560113292314,-0.04051987903806809,-0.03489894595168715
0.8140443402676042,-0.04917449220103333,-0.03485496489728278
0.8145326692059771,-0.05632031109239422,-0.03653058674194423
0.81502099814435,-0.06740531570690006,-0.049082384940796586
0.815509327082723,-0.07569499454147258,-0.06966829233445979
0.8159976560210958,-0.0744860972788593,-0.08356672353471029
0.8164859849594687,-0.07374761346933385,-0.07833167395687009
0.8169743138978416,-0.07847102378530925,-0.06280122955670091
0.8174626428362145,-0.07791240185088541,-0.05424569350265598
0.8179509717745873,-0.06832097116207073,-0.050119514774450716
0.8184393007129602,-0.05585458507666463,-0.03991026570909814
0.8189276296513331,-0.04452425868119815,-0.02741150816783288
0.8194159585897061,-0.03289835459351116,-0.022647848746815823
0.8199042875280789,-0.017789274308810894,-0.02422179236048925
0.8203926164664518,-0.0008497331932706433,-0.02277469078460453
0.8208809454048247,0.015307039384648977,-0.010242595051889234
0.8213692743431976,0.029361430545587156,0.017918360866995546
0.8218576032815704,0.040858883773448665,0.05057879468066582
0.8223459322199433,0.05303480199146563,0.06613389767453876
0.8228342611583163,0.0642358217473293,0.06206578929546953
0.8233225900966891,0.06981977137514188,0.05783929825610718
0.823810919035062,0.07236611358218939,0.07019620607301544
0.8242992479734349,0.07561306461947513,0.09362895285181212
0.8247875769118078,0.07715136297180678,0.1084092611151581
0.8252759058501806,0.07101891717553686,0.1060020884173106
0.8257642347885535,0.06260694495453319,0.0917228121683194
0.8262525637269265,0.06285031634375149,0.0730692242340075
0.8267408926652994,0.06520570228614912,0.05830395488473182
0.8272292216036722,0.05773481267945038,0.04977357109658918
0.8277175505420451,0.0403116674977655,0.037172681623813125
0.828205879480418,0.020187901694482792,0.01581719935669754
0.8286942084187909,0.004979229446560345,0.0014403510116163137
0.8291825373571637,-0.007114632328993979,0.008982533932705625
0.8296708662955367,-0.023839294988997995,0.024665640869507538
0.8301591952339096,-0.04215251005065716,0.016655186244815837
0.8306475241722824,-0.051918769332692405,-0.02805835828650547
0.8311358531106553,-0.0543684681907341,-0.08773553554973472
0.8316241820490282,-0.0613265263284444,-0.11965677609572022
0.8321125109874011,-0.07296038293098736,-0.10536348374299362
0.8326008399257739,-0.07907508593392668,-0.07632458457591597
0.8330891688641469,-0.08013799474029898,-0.06520182330932486
0.8335774978025198,-0.0799726778349717,-0.0659165586379412
0.8340658267408927,-0.07752937017108075,-0.056472809703283416
0.8345541556792655,-0.07083483778489527,-0.02817710375747136
0.8350424846176384,-0.05718881288245302,-0.0027329733417445212
0.8355308135560113,-0.04170772075308327,-0.01943880943321286
0.8360191424943842,-0.03347148946031161,-0.07554213043740476
0.836507471432757,-0.028154588241545448,-0.11682950810680731
0.83699580037113,-0.013448000255586165,-0.10901317951777197
0.8374841293095029,0.008753899592372692,-0.06737312600763001
0.8379724582478758,0.024306278534926378,-0.023392389028075746
0.8384607871862486,0.03312592274696534,0.0028695186421994687
0.8389491161246215,0.04555466965646801,0.016763208742023285
0.8394374450629944,0.05981641605941234,0.039262857633595105
0.8399257740013673,0.07158483467726011,0.07394148319047593
0.8404141029397402,0.07961652123205173,0.09668763413597498
0.8409024318781131,0.08062304368943846,0.08311001340805058
0.841390760816486,0.07883657389328394,0.0440246070188823
0.8418790897548588,0.08041628962506568,0.01779397149935029
0.8423674186932317,0.08080051378288966,0.020300792158603906
0.8428557476316046,0.07243515373134565,0.03601590051503119
0.8433440765699776,0.05974722075994669,0.051693823571778555
0.8438324055083504,0.05012109437362649,0.060848921007274646
0.8443207344467233,0.03843830974898914,0.054620793454758586
0.8448090633850962,0.02341092835924481,0.03513922331130223
0.8452973923234691,0.009893054656575955,0.018150915738544885
0.8457857212618419,-0.005591041352698341,0.005751034965165937
0.8462740502002148,-0.022063344280267575,-0.01568054690875635
0.8467623791385878,-0.035003309647870316,-0.041113111364135604
0.8472507080769607,-0.045788499063556934,-0.05247266275051782
0.8477390370153335,-0.05486673265236352,-0.055271304105434904
0.8482273659537064,-0.06534041621142501,-0.06550144761661982
0.8487156948920793,-0.07742181688899229,-0.07802175453791163
0.8492040238304521,-0.08363225609284533,-0.07954538628545157
0.849692352768825,-0.08502846413181121,-0.07069780818498031
0.850180681707198,-0.08677211844695998,-0.06120196825369379
0.8506690106455709,-0.08400593454760828,-0.05351562292673417
0.8511573395839437,-0.07375487552717347,-0.04094530755404401
0.8516456685223166,-0.06200885053265662,-0.024048538827364963
0.8521339974606895,-0.05094619849630072,-0.008946711984464402
0.8526223263990624,-0.03790714785376206,0.005982993110055859
0.8531106553374352,-0.025721400767699958,0.02358325050429975
0.8535989842758082,-0.014797169318400466,0.04210811226221924
0.8540873132141811,0.0026624116221130784,0.0608768303245966
0.854575642152554,0.022797277247984207,0.0815605271326271
0.8550639710909268,0.03562964874970838,0.10076462146763628
0.8555523000292997,0.046533315431494394,0.10723111244702577
0.8560406289676726,0.06027800691876728,0.09127801382284173
0.8565289579060456,0.07140142014090169,0.05780756342743994
0.8570172868444184,0.0753213268521254,0.027610297160287352
0.8575056157827913,0.07351870972198521,0.02017623572684947
0.8579939447211642,0.07459286126889297,0.03705481010969251
0.858482273659537,0.07941579254927927,0.06548774432965082
0.8589706025979099,0.08069263312296333,0.09307986554527567
0.8594589315362828,0.07576979413936986,0.10813947019681558
0.8599472604746558,0.06253792045739556,0.09690765841586851
0.8604355894130286,0.04643416799677231,0.0544192146796011
0.8609239183514015,0.03536769954077005,-0.0033791348980724487
0.8614122472897744,0.024987372424612155,-0.04290072012511631
0.8619005762281473,0.011907662277062086,-0.050076754444530136
0.8623889051665201,-0.002046228955200057,-0.05004342860201345
0.862877234104893,-0.01755216141027267,-0.0644644829350239
0.863365563043266,-0.03383060573349638,-0.08479339306587066
0.8638538919816389,-0.04767453603888927,-0.09742703946962292
0.8643422209200117,-0.05822452623657976,-0.10061085120444849
0.8648305498583846,-0.06683599333395475,-0.09471442988226594
0.8653188787967575,-0.07206253214563366,-0.07580252073189488
0.8658072077351304,-0.0720218610191256,-0.047747081090751084
0.8662955366735032,-0.07176431912772178,-0.027968543761878253
0.8667838656118761,-0.07571463470195161,-0.02500774268336326
0.8672721945502491,-0.07801564130253147,-0.028254044310311907
0.8677605234886219,-0.0711703519307558,-0.03521890039502429
0.8682488524269948,-0.06000168084774562,-0.055039365637758804
0.8687371813653677,-0.053676280202230794,-0.07678231352741269
0.8692255103037406,-0.04691998777779429,-0.07904296864541187
0.8697138392421134,-0.032572442242899166,-0.06628488846024246
0.8702021681804863,-0.01456032397186004,-0.05528137406579972
0.8706904971188593,0.004321166419866642,-0.047007428050323964
0.8711788260572322,0.02263757246886208,-0.03480861182614991
0.871667154995605,0.03726921779862154,-0.009503374724751091
0.8721554839339779,0.04695557910473947,0.03292627504250142
0.8726438128723508,0.05422990909642161,0.07586289496032877
0.8731321418107237,0.06337246148395122,0.10804557899622724
0.8736204707490965,0.07000275322347774,0.13058131861414457
0.8741087996874695,0.07018277357590075,0.13134615565365013
0.8745971286258424,0.0708957865644544,0.1120052654723645
0.8750854575642153,0.07550253130476489,0.0989756236337326
0.8755737865025881,0.08066645589661839,0.10203738329141923
0.876062115440961,0.08037673970747056,0.11168244242126725
0.8765504443793339,0.07006206496517668,0.11452021178386684
0.8770387733177067,0.05395739370238698,0.09295654093383372
0.8775271022560797,0.03868241577554872,0.04934573065544361
0.8780154311944526,0.02885327647026541,0.011318665151222922
0.8785037601328255,0.0212759399618974,-0.013181432182894573
0.8789920890711983,0.005686763541865256,-0.04227162638211172
0.8794804180095712,-0.01521950034729072,-0.07444862602629877
0.8799687469479441,-0.03168013607664973,-0.0870879683521982
0.880457075886317,-0.04338102048047266,-0.07930098405370002
0.8809454048246899,-0.055399179096373846,-0.07271196863329876
0.8814337337630628,-0.06836932669477822,-0.0760140951939807
0.8819220627014357,-0.07387043695258697,-0.07624131373597327
0.8824103916398086,-0.0731899921416013,-0.06296661528997516
0.8828987205781814,-0.07621163084202456,-0.049941114888322286
0.8833870495165543,-0.07914492611666243,-0.06393854996951034
0.8838753784549273,-0.07520755365946817,-0.10469528427313521
0.8843637073933001,-0.06435098315683162,-0.1283938280530942
0.884852036331673,-0.051849926898720054,-0.10368344577209035
0.8853403652700459,-0.0435200415261175,-0.06227452490677523
0.8858286942084188,-0.035863817151341716,-0.0460672406754359
0.8863170231467916,-0.02684029429682436,-0.04420815338333241
0.8868053520851645,-0.018223849493156936,-0.026094856371784277
0.8872936810235375,-0.006489380037477129,0.007854812296955838
0.8877820099619104,0.009256845390340468,0.03740644435718868
0.8882703389002832,0.026258261833813863,0.05435660386741106
0.8887586678386561,0.04211069510468321,0.06376208131006089
0.889246996777029,0.054722906210529595,0.06800096437847473
0.8897353257154019,0.06464591418189514,0.07098767853638821
0.8902236546537747,0.07333074268175631,0.08286951171393887
0.8907119835921476,0.08102433230401283,0.09881210924621874
0.8912003125305206,0.08362643077681774,0.10286740507732992
0.8916886414688935,0.07889094393343794,0.09927571020365572
0.8921769704072663,0.07664163383510124,0.10304543642000188
0.8926652993456392,0.07782485972142765,0.11011232463771041
0.8931536282840121,0.06803558936457632,0.10207780757720956
0.8936419572223849,0.05127814864808398,0.07769874641144066
0.8941302861607578,0.04143829664863675,0.057536089407992375
0.8946186150991308,0.032743566016336566,0.04723055449895151
0.8951069440375037,0.016006286114524093,0.031851298135934555
0.8955952729758765,-0.003671883471799259,0.007618073399313679
0.8960836019142494,-0.019486980773129593,-0.017452945039979312
0.8965719308526223,-0.032215685490321416,-0.041090240337117126
0.8970602597909952,-0.04196164410856307,-0.05863536968699583
0.897548588729368,-0.050275265678923126,-0.06147354344366865
0.898036917667741,-0.061550200394540566,-0.06153505691602292
0.8985252466061139,-0.0719744463592686,-0.08035209007156564
0.8990135755444868,-0.07561153173508757,-0.11109676527235736
0.8995019044828596,-0.07359530834734944,-0.12306888842203159
0.8999902334212325,-0.07204494255121838,-0.09964495043552168
0.9004785623596054,-0.0766379340753443,-0.06505738360191234
0.9009668912979784,-0.07974984641263971,-0.05922670905159092
0.9014552202363512,-0.07005554573087491,-0.08191454465853597
0.9019435491747241,-0.0551286789248461,-0.09549059749709868
0.902431878113097,-0.045443495687814264,-0.07828121522539053
0.9029202070514698,-0.0357032543065316,-0.04243549313164417
0.9034085359898427,-0.02163812486266369,-0.006108414061821464
0.9038968649282156,-0.010132362040083812,0.024267149522502154
0.9043851938665886,-0.001323344833380079,0.04390538242108333
0.9048735228049614,0.0121833266426715,0.0438195279732984
0.9053618517433343,0.0290210865668777,0.026688352161896266
0.9058501806817072,0.04604666860766098,0.020842736997022254
0.9063385096200801,0.06092657891790085,0.05117462349624175
0.9068268385584529,0.06815883766211545,0.09596913330501287
0.9073151674968258,0.06947340081743415,0.11254738138566756
0.9078034964351988,0.07051401180281162,0.09835018245979782
0.9082918253735717,0.07343419090392865,0.08447710835966091
0.9087801543119445,0.07722705285940223,0.0861144451611952
0.9092684832503174,0.07679956052150695,0.08960559750853171
0.9097568121886903,0.07327403619394761,0.0794924354904858
0.9102451411270632,0.06939376128640085,0.059904603221114947
0.910733470065436,0.05937004491482479,0.04585790817550058
0.911221799003809,0.041793454978384215,0.044800783497950664
0.9117101279421819,0.018401300382728813,0.05174043687015663
0.9121984568805547,-0.0041028361363489516,0.0506777629071911
0.9126867858189276,-0.015665753969566112,0.02127523001488743
0.9131751147573005,-0.02471240021389709,-0.032478291815994084
0.9136634436956734,-0.04007826031468916,-0.07817851607420429
0.9141517726340462,-0.05398142985659713,-0.10004127225468161
0.9146401015724192,-0.062322281114333175,-0.11164932890236204
0.9151284305107921,-0.06789204383748258,-0.12195131851798399
0.915616759449165,-0.07230107849099933,-0.12423311472552903
0.9161050883875378,-0.075483777910025,-0.11364206591846569
0.9165934173259107,-0.07879158245508391,-0.09396703466604499
0.9170817462642836,-0.07985855020956924,-0.07255572912546754
0.9175700752026565,-0.07249539657672936,-0.056987831327321374
0.9180584041410293,-0.06364449198947897,-0.046589534651951314
0.9185467330794023,-0.05942019327691886,-0.03185169041888125
0.9190350620177752,-0.052028490035211726,-0.010661064703947329
0.9195233909561481,-0.038848314517433556,0.011961446592602926
0.9200117198945209,-0.024112485923340525,0.034876998204260296
0.9205000488328938,-0.010701523384569143,0.051655101480350296
0.9209883777712667,0.0017251114992076193,0.04877766409820146
0.9214767067096395,0.014718764714576948,0.020098104134523963
0.9219650356480125,0.030557618860097786,-0.02484176976041512
0.9224533645863854,0.048076081973786024,-0.05422761523358106
0.9229416935247583,0.057264603950512374,-0.04085832278970309
0.9234300224631311,0.0597788184940812,0.003758595719169658
0.923918351401504,0.06742874226812796,0.054157797483486966
0.9244066803398769,0.07659013413251271,0.09128091169012159
0.9248950092782499,0.08101274286912187,0.09707150619843544
0.9253833382166227,0.08462444091105542,0.07479781459287384
0.9258716671549956,0.08924979393914051,0.05478783009885841
0.9263599960933685,0.08659308411271374,0.05157729685580961
0.9268483250317414,0.07114570845073205,0.04704251260269332
0.9273366539701142,0.053601123605575555,0.0374865252798191
0.9278249829084871,0.04017219840485218,0.04605653950439825
0.9283133118468601,0.026171914647204298,0.06776921526459409
0.9288016407852329,0.012562473515587388,0.06337012738974536
0.9292899697236058,-0.001809092735959924,0.025275120965392483
0.9297782986619787,-0.0207935721812282,-0.010633168010256865
0.9302666276003516,-0.042641669175509184,-0.02125524951583229
0.9307549565387244,-0.0610075166915446,-0.019690677985410947
0.9312432854770973,-0.06822091985197783,-0.029985175554420904
0.9317316144154703,-0.06739707323916007,-0.050504894051950154
0.9322199433538432,-0.06842413869040302,-0.059613964309641984
0.932708272292216,-0.07246286227795097,-0.05846784388665669
0.9331966012305889,-0.07358427788063261,-0.06450083708980953
0.9336849301689618,-0.06968177940777885,-0.07507999520036135
0.9341732591073347,-0.0651906150021612,-0.07779237066794334
0.9346615880457075,-0.063276620694042,-0.06886684066705497
0.9351499169840805,-0.06251855375421159,-0.04676538239860803
0.9356382459224534,-0.05662423735240368,-0.019584378853943547
0.9361265748608263,-0.03987539728184287,-0.006436690261373126
0.9366149037991991,-0.018637589386884916,-0.010024280931856974
0.937103232737572,-0.002774741634530913,-0.010865385171529228
0.9375915616759449,0.006584622440155295,0.002385663346469669
0.9380798906143177,0.013981826495068283,0.016374772539137827
0.9385682195526907,0.02815690412832105,0.01764538814293133
0.9390565484910636,0.04877989659682752,0.019991987413949752
0.9395448774294365,0.06305687689772722,0.04154884278102059
0.9400332063678093,0.06973834505793002,0.07111499165252608
0.9405215353061822,0.0769281252353826,0.08549240075634489
0.9410098642445551,0.08448153973201006,0.07669215392653349
0.941498193182928,0.08708484682857474,0.05594340793834375
0.9419865221213009,0.08220359009493235,0.0447844552903124
0.9424748510596738,0.0735333927600061,0.05091517611572351
0.9429631799980467,0.06608444030271697,0.06575022336629993
0.9434515089364196,0.06119692019018052,0.07994015675444376
0.9439398378747924,0.05578076369312551,0.07820442983747183
0.9444281668131653,0.044948587405081834,0.05322465779591943
0.9449164957515382,0.0317642127446176,0.025709562508715554
0.9454048246899112,0.01870165553757399,0.018199605133584915
0.945893153628284,0.0007387557359261112,0.030712821069372506
0.9463814825666569,-0.0184260925263174,0.05533979510387449
0.9468698115050298,-0.034570809585541235,0.07789669973368984
0.9473581404434026,-0.051030927833358664,0.05319154150014283
0.9478464693817755,-0.06374000419004755,-0.05460300152167632
